EXFO_Electro_Optical_Engineering   -  OTDR_REPORT

TRACE_FILE:  TRACE008.asc
OTDR:  FTB-7323B-89
SERIAL_NUMBER:  54431-2C
WAVELENGTH:  1550.0 (SM)
DISTANCE_RANGE:  40.0000 km
PULSE_WIDTH:  100 ns
ACQUISITION_TIME: 1.00 min
FIBER_INDEX:  1.4681
HELIX_FACTOR:  0.00 %
RBS_FACTOR:  -82.29 dB
JOB_ID:  
CABLE_ID:  
FIBER_ID:  
FIBER_TYPE:  
OPERATOR_A:  
OPERATOR_B:  

DATE:  2011/07/06
TIME:  14:45

NUMBER_OF_AVERAGED_POINTS:  500

                                 FAULT TABLE

-------------------------------------------------------------------------------
No,Loc(km),Event Type,Loss(dB),Refl(dB),Atten(dB/km),Cumul(dB)

 1,0.0000,Launch Level,- - -, >-16.1 ,, 0.000

,,Fiber Section  (10.5369 km), 2.022 ,, 0.192 , 2.022
 2,10.5369,Non-Reflective Fault, 0.817 ,,, 2.838

,,Fiber Section  (10.5574 km), 2.000 ,, 0.189 , 4.839


  Link Loss: 4.84 dB    Link Length: 21.0943 km    Average Loss: 0.229 dB/km


POS(km)  VAL(dB)

0.0000 28.1160
0.0817 21.6974
0.1634 20.9443
0.2450 20.5889
0.3267 20.3817
0.4084 20.2350
0.4901 20.1360
0.5718 20.0532
0.6535 20.0160
0.7351 19.9664
0.8168 19.9179
0.8985 19.8768
0.9802 19.8494
1.0619 19.8386
1.1435 19.8098
1.2252 19.7886
1.3069 19.7760
1.3886 19.7459
1.4703 19.7379
1.5520 19.7218
1.6336 19.7177
1.7153 19.6858
1.7970 19.6823
1.8787 19.6543
1.9604 19.6356
2.0420 19.6328
2.1237 19.6270
2.2054 19.6055
2.2871 19.5838
2.3688 19.5776
2.4505 19.5628
2.5321 19.5330
2.6138 19.5199
2.6955 19.4899
2.7772 19.4964
2.8589 19.4658
2.9405 19.4444
3.0222 19.4487
3.1039 19.4314
3.1856 19.4111
3.2673 19.4057
3.3490 19.3786
3.4306 19.3634
3.5123 19.3469
3.5940 19.3315
3.6757 19.3134
3.7574 19.3001
3.8390 19.2838
3.9207 19.2687
4.0024 19.2631
4.0841 19.2649
4.1658 19.2317
4.2475 19.2162
4.3291 19.2073
4.4108 19.1926
4.4925 19.1865
4.5742 19.1409
4.6559 19.1317
4.7375 19.1156
4.8192 19.1222
4.9009 19.0867
4.9826 19.0725
5.0643 19.0415
5.1460 19.0385
5.2276 19.0191
5.3093 19.0098
5.3910 18.9953
5.4727 18.9874
5.5544 18.9683
5.6360 18.9599
5.7177 18.9146
5.7994 18.9178
5.8811 18.9074
5.9628 18.8857
6.0445 18.8758
6.1261 18.8614
6.2078 18.8459
6.2895 18.8325
6.3712 18.8144
6.4529 18.8092
6.5345 18.7721
6.6162 18.7651
6.6979 18.7507
6.7796 18.7232
6.8613 18.7166
6.9429 18.7256
7.0246 18.6737
7.1063 18.6744
7.1880 18.6585
7.2697 18.6494
7.3514 18.5863
7.4330 18.5994
7.5147 18.5787
7.5964 18.5557
7.6781 18.5665
7.7598 18.5404
7.8414 18.5562
7.9231 18.5212
8.0048 18.5148
8.0865 18.5012
8.1682 18.4781
8.2499 18.4662
8.3315 18.4173
8.4132 18.3981
8.4949 18.4050
8.5766 18.3936
8.6583 18.3610
8.7399 18.3412
8.8216 18.3547
8.9033 18.3216
8.9850 18.3030
9.0667 18.2916
9.1484 18.2599
9.2300 18.2512
9.3117 18.2330
9.3934 18.2233
9.4751 18.2196
9.5568 18.1726
9.6384 18.1540
9.7201 18.1491
9.8018 18.1403
9.8835 18.1081
9.9652 18.0948
10.0469 18.0749
10.1285 18.0768
10.2102 18.0355
10.2919 18.0418
10.3736 17.9920
10.4553 17.9611
10.5369 17.3053
10.6186 17.1466
10.7003 17.1382
10.7820 17.1046
10.8637 17.0658
10.9454 17.0626
11.0270 17.0417
11.1087 17.0128
11.1904 16.9964
11.2721 16.9936
11.3538 17.0179
11.4354 16.9747
11.5171 16.9845
11.5988 16.9535
11.6805 16.9190
11.7622 16.9105
11.8439 16.9286
11.9255 16.8742
12.0072 16.8572
12.0889 16.8586
12.1706 16.8354
12.2523 16.8215
12.3339 16.8101
12.4156 16.7460
12.4973 16.7935
12.5790 16.7608
12.6607 16.7621
12.7424 16.7464
12.8240 16.6829
12.9057 16.6795
12.9874 16.6514
13.0691 16.6742
13.1508 16.6618
13.2324 16.6808
13.3141 16.6423
13.3958 16.6105
13.4775 16.5811
13.5592 16.5003
13.6409 16.5312
13.7225 16.5168
13.8042 16.5219
13.8859 16.5268
13.9676 16.5196
14.0493 16.4232
14.1309 16.4482
14.2126 16.3970
14.2943 16.4710
14.3760 16.4026
14.4577 16.4297
14.5394 16.3396
14.6210 16.3510
14.7027 16.3647
14.7844 16.3097
14.8661 16.3021
14.9478 16.2783
15.0294 16.2437
15.1111 16.2634
15.1928 16.3044
15.2745 16.2630
15.3562 16.2282
15.4379 16.2192
15.5195 16.2368
15.6012 16.1496
15.6829 16.1447
15.7646 16.1558
15.8463 16.0659
15.9279 16.0887
16.0096 16.0363
16.0913 16.0521
16.1730 16.0796
16.2547 16.0644
16.3364 16.0155
16.4180 16.0361
16.4997 16.0543
16.5814 16.0004
16.6631 15.9484
16.7448 15.9699
16.8264 15.9557
16.9081 15.9993
16.9898 15.8471
17.0715 15.9010
17.1532 15.9076
17.2349 15.8370
17.3165 15.8656
17.3982 15.8282
17.4799 15.7840
17.5616 15.8549
17.6433 15.7665
17.7249 15.7764
17.8066 15.7069
17.8883 15.7636
17.9700 15.6757
18.0517 15.6944
18.1334 15.6606
18.2150 15.6830
18.2967 15.6288
18.3784 15.6901
18.4601 15.6107
18.5418 15.5149
18.6234 15.5783
18.7051 15.6466
18.7868 15.5417
18.8685 15.6664
18.9502 15.5153
19.0318 15.5928
19.1135 15.4941
19.1952 15.5742
19.2769 15.4927
19.3586 15.4520
19.4403 15.4432
19.5219 15.4388
19.6036 15.4268
19.6853 15.4403
19.7670 15.3517
19.8487 15.3621
19.9303 15.4043
20.0120 15.2797
20.0937 15.3738
20.1754 15.3505
20.2571 15.3366
20.3388 15.2847
20.4204 15.2483
20.5021 15.2475
20.5838 15.3240
20.6655 15.2538
20.7472 15.1684
20.8288 15.2018
20.9105 15.1524
20.9922 15.2315
21.0739 12.1086
21.1556 3.8686
21.2373 4.8512
21.3189 3.6650
21.4006 7.0236
21.4823 5.8065
21.5640 5.1896
21.6457 3.5181
21.7273 5.0807
21.8090 4.0714
21.8907 4.9985
21.9724 4.8509
22.0541 3.5979
22.1358 4.1296
22.2174 3.4778
22.2991 2.7769
22.3808 4.8890
22.4625 3.1392
22.5442 6.0219
22.6258 5.6414
22.7075 5.9462
22.7892 4.7612
22.8709 4.7177
22.9526 5.0079
23.0343 4.2378
23.1159 5.0424
23.1976 3.3499
23.2793 2.8279
23.3610 4.3470
23.4427 3.4630
23.5243 5.3773
23.6060 4.5748
23.6877 4.4788
23.7694 4.7299
23.8511 0.8748
23.9328 4.3470
24.0144 4.7569
24.0961 3.6105
24.1778 4.5959
24.2595 3.4117
24.3412 6.2493
24.4228 5.2236
24.5045 4.3283
24.5862 3.8452
24.6679 5.6739
24.7496 2.8231
24.8313 5.2362
24.9129 3.3061
24.9946 3.6333
25.0763 4.2196
25.1580 6.1794
25.2397 2.3277
25.3213 3.7596
25.4030 6.9868
25.4847 4.0034
25.5664 4.7256
25.6481 2.6033
25.7298 3.2127
25.8114 1.8878
25.8931 4.6755
25.9748 3.2893
26.0565 6.4403
26.1382 2.3394
26.2198 4.4692
26.3015 5.7618
26.3832 3.3430
26.4649 6.3845
26.5466 1.6465
26.6283 3.6947
26.7099 5.0290
26.7916 4.0257
26.8733 4.8073
26.9550 2.0747
27.0367 3.8300
27.1183 4.1995
27.2000 5.0546
27.2817 5.1404
27.3634 3.5143
27.4451 6.2956
27.5268 4.4315
27.6084 7.0925
27.6901 4.1839
27.7718 3.9037
27.8535 5.9704
27.9352 3.1422
28.0168 4.3329
28.0985 4.5767
28.1802 6.4470
28.2619 5.8354
28.3436 4.9888
28.4253 7.1550
28.5069 4.8409
28.5886 4.7454
28.6703 2.1374
28.7520 3.6498
28.8337 3.3526
28.9153 1.0491
28.9970 2.6991
29.0787 5.1117
29.1604 2.1946
29.2421 6.0265
29.3238 2.7336
29.4054 3.3861
29.4871 3.5424
29.5688 3.9756
29.6505 2.7498
29.7322 4.1535
29.8138 5.2844
29.8955 4.2159
29.9772 2.8740
30.0589 5.0571
30.1406 5.6568
30.2223 6.2275
30.3039 4.1522
30.3856 5.3354
30.4673 4.1689
30.5490 4.1685
30.6307 4.1274
30.7123 2.0091
30.7940 5.1993
30.8757 4.5580
30.9574 5.3049
31.0391 3.5834
31.1207 4.6472
31.2024 3.0729
31.2841 3.2836
31.3658 3.3600
31.4475 1.9110
31.5292 3.6524
31.6108 2.9400
31.6925 5.2131
31.7742 5.7140
31.8559 5.3161
31.9376 4.4058
32.0192 6.1154
32.1009 4.1392
32.1826 3.4233
32.2643 3.1935
32.3460 3.8175
32.4277 4.1297
32.5093 4.9606
32.5910 5.1776
32.6727 1.4280
32.7544 6.1947
32.8361 7.1468
32.9177 4.5883
32.9994 3.4559
33.0811 3.7300
33.1628 4.7448
33.2445 4.0262
33.3262 3.0204
33.4078 3.7883
33.4895 4.1135
33.5712 5.2427
33.6529 4.2606
33.7346 5.7640
33.8162 5.5777
33.8979 4.2659
33.9796 3.0820
34.0613 5.5361
34.1430 4.3297
34.2247 2.6088
34.3063 6.4812
34.3880 4.1641
34.4697 4.9015
34.5514 4.5773
34.6331 5.2612
34.7147 5.0639
34.7964 4.6815
34.8781 4.8537
34.9598 5.8597
35.0415 2.8810
35.1232 4.8239
35.2048 2.9445
35.2865 3.2899
35.3682 4.6397
35.4499 3.1032
35.5316 5.5354
35.6132 6.5248
35.6949 2.4310
35.7766 2.2208
35.8583 5.6019
35.9400 4.9980
36.0217 6.2584
36.1033 5.1356
36.1850 6.5204
36.2667 5.1441
36.3484 3.8616
36.4301 4.2564
36.5117 4.6907
36.5934 3.0685
36.6751 3.4328
36.7568 3.8425
36.8385 2.4711
36.9202 4.3737
37.0018 2.2852
37.0835 4.2040
37.1652 4.1067
37.2469 2.8246
37.3286 3.5719
37.4102 3.3573
37.4919 4.7322
37.5736 2.9964
37.6553 3.9459
37.7370 4.4612
37.8187 2.8931
37.9003 3.2912
37.9820 5.2710
38.0637 3.6906
38.1454 3.1806
38.2271 6.6194
38.3087 2.5195
38.3904 4.3273
38.4721 1.9313
38.5538 3.2209
38.6355 3.1422
38.7172 4.1868
38.7988 3.9474
38.8805 5.3394
38.9622 4.9123
39.0439 4.0971
39.1256 5.8468
39.2072 6.5247
39.2889 0.9933
39.3706 5.2076
39.4523 4.0934
39.5340 3.1721
39.6157 3.3282
39.6973 4.3834
39.7790 1.6797
39.8607 2.9782
39.9424 3.0938
40.0241 2.1143
40.1057 4.4621
40.1874 2.7762
40.2691 5.4492
40.3508 4.8685
40.4325 1.9500
40.5142 2.4248
40.5958 4.7059
40.6775 4.1098
40.7592 1.8814




