EXFO_Electro_Optical_Engineering   -  OTDR_REPORT

TRACE_FILE:  TRACE001.asc
OTDR:  FTB-7323B-89
SERIAL_NUMBER:  54431-2C
WAVELENGTH:  1550.0 (SM)
DISTANCE_RANGE:  40.0000 km
PULSE_WIDTH:  275 ns
ACQUISITION_TIME: 0.50 min
FIBER_INDEX:  1.4681
HELIX_FACTOR:  0.00 %
RBS_FACTOR:  -82.29 dB
JOB_ID:  
CABLE_ID:  
FIBER_ID:  
FIBER_TYPE:  
OPERATOR_A:  
OPERATOR_B:  

DATE:  2011/07/06
TIME:  14:34

NUMBER_OF_AVERAGED_POINTS:  500

                                 FAULT TABLE

-------------------------------------------------------------------------------
No,Loc(km),Event Type,Loss(dB),Refl(dB),Atten(dB/km),Cumul(dB)

 1,0.0000,Launch Level,- - -, >-15.9 ,, 0.000

,,Fiber Section  (10.5497 km), 1.990 ,, 0.189 , 1.990
 2,10.5497,Non-Reflective Fault, 0.815 ,,, 2.805

,,Fiber Section  (10.5497 km), 1.991 ,, 0.189 , 4.795


  Link Loss: 4.80 dB    Link Length: 21.0994 km    Average Loss: 0.227 dB/km


POS(km)  VAL(dB)

0.0000 36.8834
0.0817 24.7952
0.1634 23.6626
0.2450 23.2657
0.3267 23.0570
0.4084 22.9192
0.4901 22.8348
0.5718 22.7683
0.6535 22.7368
0.7351 22.7003
0.8168 22.6716
0.8985 22.6367
0.9802 22.6153
1.0619 22.6047
1.1435 22.5826
1.2252 22.5681
1.3069 22.5582
1.3886 22.5248
1.4703 22.5175
1.5520 22.5133
1.6336 22.4883
1.7153 22.4770
1.7970 22.4680
1.8787 22.4479
1.9604 22.4349
2.0420 22.4111
2.1237 22.4062
2.2054 22.4005
2.2871 22.3698
2.3688 22.3682
2.4505 22.3545
2.5321 22.3205
2.6138 22.3181
2.6955 22.3063
2.7772 22.2955
2.8589 22.2687
2.9405 22.2511
3.0222 22.2457
3.1039 22.2345
3.1856 22.2087
3.2673 22.2131
3.3490 22.1966
3.4306 22.1792
3.5123 22.1547
3.5940 22.1420
3.6757 22.1234
3.7574 22.1124
3.8390 22.0988
3.9207 22.0725
4.0024 22.0613
4.0841 22.0627
4.1658 22.0406
4.2475 22.0081
4.3291 22.0096
4.4108 21.9919
4.4925 21.9810
4.5742 21.9522
4.6559 21.9464
4.7375 21.9287
4.8192 21.9185
4.9009 21.9038
4.9826 21.8793
5.0643 21.8608
5.1460 21.8477
5.2276 21.8239
5.3093 21.8159
5.3910 21.8031
5.4727 21.7913
5.5544 21.7808
5.6360 21.7642
5.7177 21.7383
5.7994 21.7230
5.8811 21.7155
5.9628 21.6940
6.0445 21.6755
6.1261 21.6780
6.2078 21.6547
6.2895 21.6421
6.3712 21.6195
6.4529 21.6042
6.5345 21.5955
6.6162 21.5828
6.6979 21.5622
6.7796 21.5418
6.8613 21.5317
6.9429 21.5190
7.0246 21.4977
7.1063 21.4849
7.1880 21.4671
7.2697 21.4467
7.3514 21.4351
7.4330 21.4179
7.5147 21.4058
7.5964 21.4034
7.6781 21.3756
7.7598 21.3568
7.8414 21.3357
7.9231 21.3238
8.0048 21.3152
8.0865 21.2969
8.1682 21.2762
8.2499 21.2649
8.3315 21.2494
8.4132 21.2369
8.4949 21.2166
8.5766 21.2098
8.6583 21.1753
8.7399 21.1614
8.8216 21.1523
8.9033 21.1434
8.9850 21.1200
9.0667 21.1030
9.1484 21.0744
9.2300 21.0637
9.3117 21.0509
9.3934 21.0358
9.4751 21.0168
9.5568 21.0043
9.6384 20.9900
9.7201 20.9651
9.8018 20.9464
9.8835 20.9316
9.9652 20.9185
10.0469 20.9002
10.1285 20.8768
10.2102 20.8610
10.2919 20.8455
10.3736 20.8257
10.4553 20.8099
10.5369 20.6224
10.6186 20.0978
10.7003 19.9593
10.7820 19.9332
10.8637 19.9155
10.9454 19.8911
11.0270 19.8750
11.1087 19.8639
11.1904 19.8507
11.2721 19.8391
11.3538 19.8134
11.4354 19.8040
11.5171 19.7930
11.5988 19.7824
11.6805 19.7689
11.7622 19.7433
11.8439 19.7246
11.9255 19.7108
12.0072 19.7017
12.0889 19.6829
12.1706 19.6613
12.2523 19.6530
12.3339 19.6356
12.4156 19.6175
12.4973 19.6038
12.5790 19.5844
12.6607 19.5656
12.7424 19.5587
12.8240 19.5446
12.9057 19.5368
12.9874 19.5189
13.0691 19.4995
13.1508 19.4724
13.2324 19.4589
13.3141 19.4423
13.3958 19.4318
13.4775 19.4182
13.5592 19.4006
13.6409 19.3821
13.7225 19.3695
13.8042 19.3575
13.8859 19.3378
13.9676 19.3235
14.0493 19.3029
14.1309 19.2908
14.2126 19.2872
14.2943 19.2640
14.3760 19.2408
14.4577 19.2304
14.5394 19.2160
14.6210 19.2021
14.7027 19.1857
14.7844 19.1744
14.8661 19.1504
14.9478 19.1361
15.0294 19.1238
15.1111 19.1050
15.1928 19.0883
15.2745 19.0755
15.3562 19.0643
15.4379 19.0511
15.5195 19.0343
15.6012 19.0194
15.6829 19.0054
15.7646 18.9928
15.8463 18.9799
15.9279 18.9602
16.0096 18.9342
16.0913 18.9185
16.1730 18.9026
16.2547 18.8915
16.3364 18.8743
16.4180 18.8643
16.4997 18.8512
16.5814 18.8307
16.6631 18.8128
16.7448 18.7942
16.8264 18.7838
16.9081 18.7664
16.9898 18.7529
17.0715 18.7354
17.1532 18.7213
17.2349 18.7069
17.3165 18.6978
17.3982 18.6824
17.4799 18.6541
17.5616 18.6446
17.6433 18.6270
17.7249 18.6115
17.8066 18.5921
17.8883 18.5823
17.9700 18.5656
18.0517 18.5516
18.1334 18.5331
18.2150 18.5217
18.2967 18.5080
18.3784 18.4868
18.4601 18.4780
18.5418 18.4592
18.6234 18.4452
18.7051 18.4314
18.7868 18.4164
18.8685 18.3952
18.9502 18.3856
19.0318 18.3686
19.1135 18.3531
19.1952 18.3351
19.2769 18.3156
19.3586 18.3031
19.4403 18.2907
19.5219 18.2723
19.6036 18.2586
19.6853 18.2448
19.7670 18.2310
19.8487 18.2162
19.9303 18.2053
20.0120 18.1836
20.0937 18.1702
20.1754 18.1545
20.2571 18.1388
20.3388 18.1256
20.4204 18.1092
20.5021 18.0915
20.5838 18.0773
20.6655 18.0640
20.7472 18.0526
20.8288 18.0334
20.9105 18.0120
20.9922 18.0010
21.0739 18.4662
21.1556 16.8307
21.2373 12.0438
21.3189 7.8892
21.4006 6.4187
21.4823 5.7019
21.5640 5.0170
21.6457 3.2124
21.7273 2.8940
21.8090 2.3151
21.8907 4.1475
21.9724 4.5952
22.0541 2.6557
22.1358 2.9266
22.2174 2.5371
22.2991 4.2024
22.3808 1.3705
22.4625 1.4967
22.5442 1.8978
22.6258 2.0344
22.7075 1.9673
22.7892 3.5099
22.8709 2.6064
22.9526 4.1961
23.0343 3.1225
23.1159 3.2617
23.1976 1.4812
23.2793 3.3768
23.3610 2.0305
23.4427 1.3571
23.5243 3.9770
23.6060 2.7429
23.6877 3.8793
23.7694 1.2418
23.8511 2.8127
23.9328 2.8692
24.0144 2.8105
24.0961 3.5160
24.1778 2.9532
24.2595 3.6484
24.3412 1.6874
24.4228 1.4520
24.5045 3.1440
24.5862 2.7330
24.6679 3.1406
24.7496 1.9785
24.8313 1.9313
24.9129 3.8878
24.9946 1.9444
25.0763 2.9017
25.1580 2.1030
25.2397 3.0499
25.3213 2.0214
25.4030 1.8889
25.4847 3.5141
25.5664 3.0267
25.6481 1.5718
25.7298 3.9020
25.8114 3.3073
25.8931 2.6295
25.9748 1.2672
26.0565 2.7563
26.1382 2.9286
26.2198 2.9384
26.3015 3.4266
26.3832 3.0513
26.4649 1.7737
26.5466 2.9469
26.6283 3.2415
26.7099 3.1070
26.7916 4.0927
26.8733 1.4884
26.9550 1.6118
27.0367 3.5089
27.1183 1.7880
27.2000 3.9589
27.2817 0.9013
27.3634 1.1449
27.4451 2.4178
27.5268 3.9634
27.6084 1.1754
27.6901 1.0959
27.7718 1.7175
27.8535 0.2339
27.9352 1.1166
28.0168 1.1365
28.0985 2.7180
28.1802 0.7074
28.2619 2.2405
28.3436 1.5471
28.4253 1.7347
28.5069 2.5487
28.5886 2.6403
28.6703 2.5378
28.7520 1.9015
28.8337 3.1539
28.9153 1.7284
28.9970 1.7745
29.0787 1.8155
29.1604 0.7290
29.2421 4.7516
29.3238 1.8461
29.4054 1.6216
29.4871 3.1867
29.5688 3.3677
29.6505 1.3286
29.7322 0.8076
29.8138 3.1939
29.8955 0.6190
29.9772 2.8853
30.0589 1.6528
30.1406 1.1651
30.2223 3.1930
30.3039 4.5852
30.3856 0.1442
30.4673 1.4235
30.5490 1.9167
30.6307 1.3196
30.7123 3.7355
30.7940 4.4029
30.8757 1.2579
30.9574 1.6706
31.0391 1.8259
31.1207 2.7001
31.2024 1.9997
31.2841 1.7039
31.3658 2.6258
31.4475 3.0898
31.5292 3.5339
31.6108 2.1346
31.6925 1.2739
31.7742 2.0610
31.8559 1.5210
31.9376 1.6199
32.0192 2.6864
32.1009 1.9014
32.1826 1.3976
32.2643 3.0851
32.3460 1.4678
32.4277 2.3203
32.5093 3.8274
32.5910 1.7661
32.6727 1.7220
32.7544 3.4737
32.8361 3.1360
32.9177 2.0999
32.9994 3.0983
33.0811 0.7081
33.1628 2.4118
33.2445 0.2887
33.3262 2.8673
33.4078 3.1001
33.4895 2.9618
33.5712 2.2233
33.6529 1.4782
33.7346 2.5207
33.8162 3.9478
33.8979 2.9947
33.9796 0.9988
34.0613 1.7112
34.1430 2.4833
34.2247 1.0728
34.3063 3.5013
34.3880 2.0584
34.4697 2.6752
34.5514 1.3376
34.6331 2.7346
34.7147 3.1040
34.7964 3.0469
34.8781 2.4247
34.9598 2.6707
35.0415 2.7950
35.1232 1.6924
35.2048 1.9582
35.2865 3.0186
35.3682 0.1748
35.4499 1.2703
35.5316 3.2487
35.6132 2.5026
35.6949 1.7296
35.7766 1.4636
35.8583 1.9314
35.9400 3.2966
36.0217 2.8964
36.1033 2.1079
36.1850 1.6104
36.2667 1.7294
36.3484 1.4672
36.4301 2.5993
36.5117 2.2855
36.5934 1.4957
36.6751 1.9570
36.7568 1.0500
36.8385 1.7602
36.9202 1.9879
37.0018 2.1066
37.0835 3.4193
37.1652 3.0071
37.2469 3.6113
37.3286 1.9837
37.4102 2.5801
37.4919 1.9886
37.5736 4.2092
37.6553 0.9354
37.7370 1.4432
37.8187 1.4813
37.9003 1.6575
37.9820 2.1995
38.0637 2.7278
38.1454 3.0556
38.2271 2.5609
38.3087 1.0365
38.3904 1.9744
38.4721 0.5319
38.5538 1.1872
38.6355 2.7711
38.7172 1.6304
38.7988 2.6282
38.8805 2.2017
38.9622 2.2322
39.0439 1.8040
39.1256 1.3221
39.2072 1.9128
39.2889 1.3568
39.3706 3.9563
39.4523 2.0377
39.5340 3.0079
39.6157 1.8310
39.6973 3.1923
39.7790 1.1820
39.8607 2.3382
39.9424 1.1194
40.0241 2.7576
40.1057 1.6863
40.1874 1.2682
40.2691 1.7259
40.3508 2.9106
40.4325 2.8851
40.5142 2.1327
40.5958 1.2209
40.6775 2.2674
40.7592 0.8733




