EXFO_Electro_Optical_Engineering   -  OTDR_REPORT

TRACE_FILE:  TRACE011.asc
OTDR:  FTB-7323B-89
SERIAL_NUMBER:  54431-2C
WAVELENGTH:  1550.0 (SM)
DISTANCE_RANGE:  40.0000 km
PULSE_WIDTH:  100 ns
ACQUISITION_TIME: 2.00 min
FIBER_INDEX:  1.4681
HELIX_FACTOR:  0.00 %
RBS_FACTOR:  -82.29 dB
JOB_ID:  
CABLE_ID:  
FIBER_ID:  
FIBER_TYPE:  
OPERATOR_A:  
OPERATOR_B:  

DATE:  2011/07/06
TIME:  14:52

NUMBER_OF_AVERAGED_POINTS:  500

                                 FAULT TABLE

-------------------------------------------------------------------------------
No,Loc(km),Event Type,Loss(dB),Refl(dB),Atten(dB/km),Cumul(dB)

 1,0.0000,Launch Level,- - -, >-18.0 ,, 0.000

,,Fiber Section  (0.1914 km),- - -,,- - -, 0.000
 2,0.1914,Non-Reflective Fault, 1.044 ,,, 1.044

,,Fiber Section  (10.3455 km), 1.980 ,, 0.191 , 3.024
 3,10.5369,Non-Reflective Fault, 0.823 ,,, 3.847

,,Fiber Section  (10.5548 km), 2.002 ,, 0.190 , 5.848


  Link Loss: 5.85 dB    Link Length: 21.0918 km    Average Loss: 0.277 dB/km


POS(km)  VAL(dB)

0.0000 28.1227
0.0817 21.6765
0.1634 20.9040
0.2450 20.5382
0.3267 20.3176
0.4084 20.1714
0.4901 20.0628
0.5718 19.9860
0.6535 19.9438
0.7351 19.8950
0.8168 19.8541
0.8985 19.8110
0.9802 19.7745
1.0619 19.7674
1.1435 19.7352
1.2252 19.7173
1.3069 19.6901
1.3886 19.6729
1.4703 19.6689
1.5520 19.6570
1.6336 19.6303
1.7153 19.6176
1.7970 19.6030
1.8787 19.5761
1.9604 19.5607
2.0420 19.5420
2.1237 19.5421
2.2054 19.5276
2.2871 19.5023
2.3688 19.5002
2.4505 19.4736
2.5321 19.4561
2.6138 19.4442
2.6955 19.4390
2.7772 19.4216
2.8589 19.3919
2.9405 19.3783
3.0222 19.3570
3.1039 19.3537
3.1856 19.3321
3.2673 19.3329
3.3490 19.3096
3.4306 19.2978
3.5123 19.2840
3.5940 19.2621
3.6757 19.2407
3.7574 19.2374
3.8390 19.2012
3.9207 19.1873
4.0024 19.1958
4.0841 19.1799
4.1658 19.1577
4.2475 19.1350
4.3291 19.1322
4.4108 19.1010
4.4925 19.1103
4.5742 19.0758
4.6559 19.0646
4.7375 19.0535
4.8192 19.0444
4.9009 19.0074
4.9826 19.0070
5.0643 18.9771
5.1460 18.9670
5.2276 18.9431
5.3093 18.9402
5.3910 18.9196
5.4727 18.9003
5.5544 18.9012
5.6360 18.8876
5.7177 18.8560
5.7994 18.8521
5.8811 18.8207
5.9628 18.8289
6.0445 18.7985
6.1261 18.7823
6.2078 18.7776
6.2895 18.7525
6.3712 18.7325
6.4529 18.7291
6.5345 18.7008
6.6162 18.6957
6.6979 18.6772
6.7796 18.6467
6.8613 18.6507
6.9429 18.6404
7.0246 18.6077
7.1063 18.6046
7.1880 18.5736
7.2697 18.5511
7.3514 18.5552
7.4330 18.5347
7.5147 18.5211
7.5964 18.5007
7.6781 18.4726
7.7598 18.4769
7.8414 18.4490
7.9231 18.4290
8.0048 18.4163
8.0865 18.4056
8.1682 18.3975
8.2499 18.3685
8.3315 18.3622
8.4132 18.3473
8.4949 18.3297
8.5766 18.3129
8.6583 18.3054
8.7399 18.2912
8.8216 18.2766
8.9033 18.2505
8.9850 18.2128
9.0667 18.2002
9.1484 18.1968
9.2300 18.1799
9.3117 18.1739
9.3934 18.1539
9.4751 18.1281
9.5568 18.1100
9.6384 18.0811
9.7201 18.0827
9.8018 18.0646
9.8835 18.0393
9.9652 18.0287
10.0469 17.9957
10.1285 17.9968
10.2102 17.9703
10.2919 17.9455
10.3736 17.9336
10.4553 17.9224
10.5369 17.2151
10.6186 17.0592
10.7003 17.0184
10.7820 17.0335
10.8637 17.0250
10.9454 16.9893
11.0270 16.9785
11.1087 16.9487
11.1904 16.9399
11.2721 16.9237
11.3538 16.9398
11.4354 16.8875
11.5171 16.8974
11.5988 16.8722
11.6805 16.8295
11.7622 16.8454
11.8439 16.8208
11.9255 16.8017
12.0072 16.7727
12.0889 16.7668
12.1706 16.7635
12.2523 16.7288
12.3339 16.7141
12.4156 16.7475
12.4973 16.6845
12.5790 16.6801
12.6607 16.6564
12.7424 16.6613
12.8240 16.6545
12.9057 16.6048
12.9874 16.6201
13.0691 16.5914
13.1508 16.5589
13.2324 16.5800
13.3141 16.5272
13.3958 16.5249
13.4775 16.5107
13.5592 16.4882
13.6409 16.4995
13.7225 16.4579
13.8042 16.4421
13.8859 16.3932
13.9676 16.4344
14.0493 16.3796
14.1309 16.3703
14.2126 16.3861
14.2943 16.3718
14.3760 16.3272
14.4577 16.3263
14.5394 16.2989
14.6210 16.3012
14.7027 16.2647
14.7844 16.2735
14.8661 16.2362
14.9478 16.2371
15.0294 16.2171
15.1111 16.2237
15.1928 16.1342
15.2745 16.1712
15.3562 16.1570
15.4379 16.0848
15.5195 16.1087
15.6012 16.0947
15.6829 16.0719
15.7646 16.0876
15.8463 16.0559
15.9279 16.0655
16.0096 16.0392
16.0913 15.9580
16.1730 15.9848
16.2547 15.9845
16.3364 15.9482
16.4180 15.9224
16.4997 15.9449
16.5814 15.9484
16.6631 15.9264
16.7448 15.8574
16.8264 15.8719
16.9081 15.8298
16.9898 15.8204
17.0715 15.7735
17.1532 15.8117
17.2349 15.8355
17.3165 15.7956
17.3982 15.7821
17.4799 15.7572
17.5616 15.7638
17.6433 15.7194
17.7249 15.7175
17.8066 15.6921
17.8883 15.6790
17.9700 15.6631
18.0517 15.6619
18.1334 15.6635
18.2150 15.6558
18.2967 15.5707
18.3784 15.5502
18.4601 15.5566
18.5418 15.5557
18.6234 15.5233
18.7051 15.5745
18.7868 15.5189
18.8685 15.4905
18.9502 15.4679
19.0318 15.4711
19.1135 15.4573
19.1952 15.4277
19.2769 15.3824
19.3586 15.3517
19.4403 15.3596
19.5219 15.3862
19.6036 15.3121
19.6853 15.3288
19.7670 15.2864
19.8487 15.2885
19.9303 15.3165
20.0120 15.2667
20.0937 15.2238
20.1754 15.2239
20.2571 15.2263
20.3388 15.1892
20.4204 15.1968
20.5021 15.1807
20.5838 15.2168
20.6655 15.1192
20.7472 15.1322
20.8288 15.1219
20.9105 15.0920
20.9922 15.0749
21.0739 10.5559
21.1556 3.4640
21.2373 2.3566
21.3189 6.5929
21.4006 4.4884
21.4823 3.6965
21.5640 3.5206
21.6457 3.0429
21.7273 5.8830
21.8090 3.8502
21.8907 5.9748
21.9724 3.7231
22.0541 4.1328
22.1358 4.8430
22.2174 2.2151
22.2991 4.4367
22.3808 4.7995
22.4625 2.9971
22.5442 2.8409
22.6258 3.2999
22.7075 3.2885
22.7892 3.8229
22.8709 4.7350
22.9526 1.7600
23.0343 3.3386
23.1159 4.5766
23.1976 3.9626
23.2793 3.7517
23.3610 3.5909
23.4427 5.3276
23.5243 3.3042
23.6060 2.0619
23.6877 3.7621
23.7694 4.8737
23.8511 3.7341
23.9328 4.1723
24.0144 2.7165
24.0961 2.8847
24.1778 3.0598
24.2595 4.7350
24.3412 3.7364
24.4228 4.6458
24.5045 3.6346
24.5862 4.6807
24.6679 2.8806
24.7496 3.5085
24.8313 4.4980
24.9129 1.5835
24.9946 4.6882
25.0763 4.9818
25.1580 4.2351
25.2397 3.8149
25.3213 1.9233
25.4030 5.1336
25.4847 3.2956
25.5664 3.2750
25.6481 2.0197
25.7298 3.4626
25.8114 4.0704
25.8931 5.1425
25.9748 3.7761
26.0565 3.1638
26.1382 3.9183
26.2198 3.5452
26.3015 4.9239
26.3832 2.8512
26.4649 4.4790
26.5466 4.3360
26.6283 4.6822
26.7099 3.7992
26.7916 3.2760
26.8733 4.0249
26.9550 2.8587
27.0367 2.0756
27.1183 2.4735
27.2000 1.8928
27.2817 3.4125
27.3634 4.4162
27.4451 3.6138
27.5268 5.7232
27.6084 0.9450
27.6901 1.9337
27.7718 4.0025
27.8535 3.2274
27.9352 6.0548
28.0168 5.5097
28.0985 2.3242
28.1802 5.6958
28.2619 4.5506
28.3436 4.7197
28.4253 3.6454
28.5069 4.8281
28.5886 4.7928
28.6703 4.0436
28.7520 4.6840
28.8337 3.6009
28.9153 1.2666
28.9970 3.0615
29.0787 4.8250
29.1604 4.6559
29.2421 3.9248
29.3238 2.6524
29.4054 4.5528
29.4871 3.6516
29.5688 3.4578
29.6505 3.8093
29.7322 2.9524
29.8138 3.0664
29.8955 4.8227
29.9772 4.5755
30.0589 2.6167
30.1406 2.7179
30.2223 4.6457
30.3039 4.3315
30.3856 4.6539
30.4673 4.9888
30.5490 5.2306
30.6307 5.3380
30.7123 3.2833
30.7940 3.1406
30.8757 4.2622
30.9574 5.8055
31.0391 3.7091
31.1207 3.7639
31.2024 3.3296
31.2841 5.4576
31.3658 3.3978
31.4475 3.2495
31.5292 5.3820
31.6108 3.2585
31.6925 4.5367
31.7742 3.9176
31.8559 4.3806
31.9376 2.5845
32.0192 3.9302
32.1009 3.9984
32.1826 3.9414
32.2643 5.2515
32.3460 2.2175
32.4277 3.8100
32.5093 3.2113
32.5910 3.7329
32.6727 3.8016
32.7544 4.3077
32.8361 3.5377
32.9177 3.8514
32.9994 4.8137
33.0811 2.8966
33.1628 4.0130
33.2445 4.0183
33.3262 3.5746
33.4078 3.5211
33.4895 4.6065
33.5712 4.2618
33.6529 3.6436
33.7346 3.7066
33.8162 3.7601
33.8979 3.0580
33.9796 3.8940
34.0613 5.4848
34.1430 5.3195
34.2247 3.0973
34.3063 4.5629
34.3880 3.4794
34.4697 1.8631
34.5514 3.0626
34.6331 3.7287
34.7147 2.3873
34.7964 3.9021
34.8781 2.6338
34.9598 3.9737
35.0415 4.6065
35.1232 3.1197
35.2048 2.8046
35.2865 2.3690
35.3682 3.9613
35.4499 4.1596
35.5316 4.2364
35.6132 4.7642
35.6949 3.5051
35.7766 4.5291
35.8583 3.0693
35.9400 1.4844
36.0217 2.5829
36.1033 3.4990
36.1850 4.1963
36.2667 6.4125
36.3484 4.5431
36.4301 4.9693
36.5117 3.8794
36.5934 3.1579
36.6751 2.9726
36.7568 5.4950
36.8385 3.4377
36.9202 3.1058
37.0018 4.1410
37.0835 4.2857
37.1652 3.6523
37.2469 4.1322
37.3286 5.9904
37.4102 3.0964
37.4919 6.2691
37.5736 6.4417
37.6553 3.0435
37.7370 2.2131
37.8187 2.7005
37.9003 3.8011
37.9820 2.3614
38.0637 2.8152
38.1454 4.7904
38.2271 4.6458
38.3087 2.4215
38.3904 4.3902
38.4721 2.7629
38.5538 3.9410
38.6355 4.6441
38.7172 3.9042
38.7988 3.7921
38.8805 4.8126
38.9622 5.1287
39.0439 5.0113
39.1256 3.5751
39.2072 3.0048
39.2889 2.3755
39.3706 4.8614
39.4523 4.2032
39.5340 2.6209
39.6157 3.9572
39.6973 5.3084
39.7790 3.8309
39.8607 2.6848
39.9424 5.0744
40.0241 3.5058
40.1057 3.8996
40.1874 3.6109
40.2691 4.2149
40.3508 3.2429
40.4325 3.8952
40.5142 5.0086
40.5958 4.6096
40.6775 4.8091
40.7592 4.4114




