EXFO_Electro_Optical_Engineering   -  OTDR_REPORT

TRACE_FILE:  TRACE003.asc
OTDR:  FTB-7323B-89
SERIAL_NUMBER:  54431-2C
WAVELENGTH:  1550.0 (SM)
DISTANCE_RANGE:  40.0000 km
PULSE_WIDTH:  30 ns
ACQUISITION_TIME: 0.50 min
FIBER_INDEX:  1.4681
HELIX_FACTOR:  0.00 %
RBS_FACTOR:  -82.29 dB
JOB_ID:  
CABLE_ID:  
FIBER_ID:  
FIBER_TYPE:  
OPERATOR_A:  
OPERATOR_B:  

DATE:  2011/07/06
TIME:  14:37

NUMBER_OF_AVERAGED_POINTS:  500

                                 FAULT TABLE

-------------------------------------------------------------------------------
No,Loc(km),Event Type,Loss(dB),Refl(dB),Atten(dB/km),Cumul(dB)

 1,0.0000,Launch Level,- - -, >-14.5 ,, 0.000

,,Fiber Section  (10.5089 km), 2.024 ,, 0.193 , 2.024
 2,10.5089,Non-Reflective Fault, 0.818 ,,, 2.842

,,Fiber Section  (2.6572 km), 0.569 ,, 0.214 , 3.411
 X,13.1661,End of Analysis,- - -,,, 3.411

,,Fiber Section  (7.9282 km), 1.398 ,, 0.176 ,- - -


  Link Loss: 3.41 dB    Link Length: 13.1661 km    Average Loss: 0.259 dB/km


POS(km)  VAL(dB)

0.0000 24.2440
0.0817 19.1997
0.1634 18.4194
0.2450 18.0576
0.3267 17.8424
0.4084 17.6202
0.4901 17.4709
0.5718 17.4650
0.6535 17.3722
0.7351 17.3651
0.8168 17.2529
0.8985 17.2053
0.9802 17.1292
1.0619 17.1464
1.1435 17.1479
1.2252 17.1545
1.3069 17.0827
1.3886 17.0201
1.4703 17.0353
1.5520 17.0100
1.6336 17.0485
1.7153 16.9583
1.7970 16.9595
1.8787 16.9460
1.9604 16.9930
2.0420 16.8943
2.1237 16.8440
2.2054 16.8822
2.2871 16.8658
2.3688 16.8701
2.4505 16.8038
2.5321 16.7936
2.6138 16.8005
2.6955 16.8219
2.7772 16.7511
2.8589 16.7546
2.9405 16.7979
3.0222 16.6662
3.1039 16.7775
3.1856 16.7278
3.2673 16.5969
3.3490 16.6152
3.4306 16.6895
3.5123 16.7011
3.5940 16.6496
3.6757 16.5373
3.7574 16.5208
3.8390 16.5518
3.9207 16.5868
4.0024 16.5816
4.0841 16.5446
4.1658 16.4396
4.2475 16.5014
4.3291 16.4628
4.4108 16.4812
4.4925 16.4168
4.5742 16.4169
4.6559 16.4595
4.7375 16.4228
4.8192 16.4259
4.9009 16.3900
4.9826 16.3065
5.0643 16.3376
5.1460 16.3071
5.2276 16.2422
5.3093 16.2540
5.3910 16.2280
5.4727 16.2878
5.5544 16.3171
5.6360 16.1062
5.7177 16.1648
5.7994 16.1942
5.8811 16.2057
5.9628 16.1367
6.0445 16.1623
6.1261 16.1371
6.2078 16.1180
6.2895 16.1073
6.3712 16.0541
6.4529 16.0402
6.5345 15.9677
6.6162 16.0797
6.6979 16.0193
6.7796 16.0585
6.8613 15.9798
6.9429 15.9688
7.0246 15.9270
7.1063 15.9731
7.1880 16.0023
7.2697 15.8088
7.3514 15.8999
7.4330 15.8716
7.5147 15.8090
7.5964 15.9543
7.6781 15.8380
7.7598 15.8396
7.8414 15.8346
7.9231 15.8190
8.0048 15.6756
8.0865 15.7967
8.1682 15.6523
8.2499 15.7224
8.3315 15.7054
8.4132 15.7406
8.4949 15.6726
8.5766 15.7058
8.6583 15.6154
8.7399 15.6216
8.8216 15.6997
8.9033 15.5558
8.9850 15.6539
9.0667 15.5221
9.1484 15.6014
9.2300 15.4711
9.3117 15.5538
9.3934 15.3832
9.4751 15.3648
9.5568 15.4711
9.6384 15.4821
9.7201 15.4079
9.8018 15.3257
9.8835 15.4794
9.9652 15.3196
10.0469 15.3581
10.1285 15.2968
10.2102 15.3806
10.2919 15.4895
10.3736 15.3847
10.4553 15.3220
10.5369 14.3918
10.6186 14.3752
10.7003 14.5284
10.7820 14.3380
10.8637 14.4227
10.9454 14.3422
11.0270 14.4482
11.1087 14.4544
11.1904 14.1179
11.2721 14.3110
11.3538 14.4005
11.4354 14.2642
11.5171 14.4900
11.5988 14.3918
11.6805 14.2086
11.7622 14.2079
11.8439 14.0766
11.9255 14.1959
12.0072 14.1184
12.0889 13.9903
12.1706 14.1875
12.2523 14.1065
12.3339 14.1093
12.4156 14.1638
12.4973 14.0001
12.5790 13.8238
12.6607 14.0651
12.7424 14.0949
12.8240 13.9359
12.9057 14.2133
12.9874 14.0252
13.0691 14.1371
13.1508 13.3459
13.2324 13.5616
13.3141 14.0221
13.3958 13.8940
13.4775 13.8392
13.5592 13.6379
13.6409 13.8996
13.7225 13.8044
13.8042 14.1176
13.8859 13.7079
13.9676 13.6147
14.0493 13.6202
14.1309 13.8180
14.2126 13.3907
14.2943 13.7566
14.3760 13.2825
14.4577 13.7752
14.5394 13.9592
14.6210 13.6713
14.7027 13.4679
14.7844 13.3915
14.8661 13.6366
14.9478 13.6081
15.0294 13.4718
15.1111 13.6471
15.1928 13.5266
15.2745 13.4292
15.3562 13.2484
15.4379 13.6286
15.5195 13.4607
15.6012 13.5166
15.6829 13.4360
15.7646 13.3197
15.8463 13.7910
15.9279 13.2227
16.0096 13.3959
16.0913 13.2649
16.1730 13.3822
16.2547 13.3255
16.3364 13.1190
16.4180 13.5176
16.4997 12.9156
16.5814 12.7999
16.6631 13.1237
16.7448 13.1414
16.8264 13.0672
16.9081 12.9419
16.9898 12.9409
17.0715 13.1337
17.1532 13.3663
17.2349 13.2847
17.3165 13.0284
17.3982 12.9280
17.4799 12.7345
17.5616 12.7845
17.6433 12.8268
17.7249 12.5005
17.8066 12.8455
17.8883 13.0590
17.9700 12.9701
18.0517 12.8543
18.1334 12.8352
18.2150 12.7838
18.2967 12.9981
18.3784 12.6877
18.4601 12.7559
18.5418 13.1556
18.6234 12.8613
18.7051 12.3588
18.7868 12.2457
18.8685 11.8874
18.9502 12.8560
19.0318 12.5650
19.1135 12.9510
19.1952 12.8502
19.2769 12.4691
19.3586 12.6518
19.4403 12.6393
19.5219 12.9333
19.6036 12.2787
19.6853 12.8194
19.7670 12.6317
19.8487 12.7461
19.9303 12.0825
20.0120 11.3753
20.0937 11.4122
20.1754 12.0699
20.2571 12.7319
20.3388 12.5075
20.4204 12.4396
20.5021 12.3864
20.5838 12.7410
20.6655 11.9067
20.7472 12.2739
20.8288 12.3962
20.9105 12.3089
20.9922 11.9242
21.0739 7.4705
21.1556 4.5758
21.2373 5.6528
21.3189 3.5262
21.4006 4.9755
21.4823 5.8019
21.5640 4.5995
21.6457 3.0877
21.7273 3.3850
21.8090 4.9673
21.8907 6.1045
21.9724 4.2367
22.0541 4.9086
22.1358 5.6655
22.2174 4.4556
22.2991 3.6932
22.3808 5.7460
22.4625 2.6868
22.5442 7.3459
22.6258 5.6166
22.7075 3.8582
22.7892 6.4483
22.8709 4.4168
22.9526 4.2465
23.0343 3.7824
23.1159 5.4739
23.1976 1.7995
23.2793 2.9569
23.3610 6.9969
23.4427 5.5525
23.5243 5.3981
23.6060 1.1377
23.6877 4.7372
23.7694 5.2371
23.8511 5.9149
23.9328 4.2467
24.0144 3.6482
24.0961 5.5930
24.1778 5.4890
24.2595 5.7786
24.3412 3.2851
24.4228 5.0547
24.5045 4.0787
24.5862 2.9541
24.6679 5.2812
24.7496 5.3647
24.8313 5.4825
24.9129 2.7755
24.9946 6.3511
25.0763 4.3177
25.1580 7.1612
25.2397 3.5805
25.3213 4.0998
25.4030 3.3513
25.4847 5.4830
25.5664 4.0105
25.6481 5.0798
25.7298 3.9617
25.8114 5.4254
25.8931 2.7799
25.9748 5.5436
26.0565 5.4605
26.1382 7.1516
26.2198 4.6779
26.3015 7.1879
26.3832 4.9149
26.4649 6.2116
26.5466 5.2214
26.6283 6.2720
26.7099 3.2133
26.7916 1.8682
26.8733 6.1187
26.9550 4.3008
27.0367 6.5348
27.1183 5.8214
27.2000 3.8560
27.2817 4.6404
27.3634 5.8864
27.4451 5.8823
27.5268 4.5735
27.6084 5.0134
27.6901 4.1493
27.7718 6.0801
27.8535 4.0968
27.9352 4.0173
28.0168 6.2337
28.0985 5.6827
28.1802 6.7047
28.2619 6.0506
28.3436 4.2342
28.4253 5.0422
28.5069 5.7658
28.5886 5.5357
28.6703 3.3904
28.7520 5.5485
28.8337 2.9936
28.9153 5.8241
28.9970 3.1075
29.0787 4.0431
29.1604 6.1870
29.2421 5.7295
29.3238 7.2910
29.4054 3.6705
29.4871 3.8452
29.5688 6.0745
29.6505 5.1964
29.7322 2.4359
29.8138 3.3695
29.8955 2.7480
29.9772 6.4106
30.0589 3.2607
30.1406 6.2631
30.2223 7.8385
30.3039 2.6758
30.3856 7.6721
30.4673 2.1669
30.5490 4.7892
30.6307 2.4692
30.7123 6.0028
30.7940 8.0212
30.8757 4.8705
30.9574 3.8141
31.0391 4.6749
31.1207 5.5315
31.2024 5.7523
31.2841 7.0804
31.3658 3.0386
31.4475 3.9052
31.5292 3.3554
31.6108 3.2068
31.6925 5.1145
31.7742 3.9704
31.8559 5.6510
31.9376 5.6525
32.0192 7.4375
32.1009 5.6231
32.1826 2.7574
32.2643 5.6547
32.3460 5.2672
32.4277 4.3471
32.5093 6.7965
32.5910 7.7467
32.6727 4.7960
32.7544 6.1633
32.8361 4.3857
32.9177 5.1507
32.9994 5.1893
33.0811 6.8519
33.1628 4.4191
33.2445 5.0959
33.3262 4.8909
33.4078 5.3997
33.4895 3.7413
33.5712 3.5102
33.6529 2.6300
33.7346 4.9632
33.8162 4.2409
33.8979 7.3098
33.9796 2.3365
34.0613 3.2220
34.1430 5.6028
34.2247 5.3077
34.3063 4.7037
34.3880 4.4800
34.4697 5.0448
34.5514 4.5745
34.6331 7.0609
34.7147 4.1443
34.7964 4.7929
34.8781 3.7842
34.9598 3.8735
35.0415 4.2647
35.1232 6.4519
35.2048 3.9497
35.2865 2.9627
35.3682 8.8616
35.4499 4.0215
35.5316 4.6731
35.6132 6.1738
35.6949 6.4051
35.7766 7.4001
35.8583 5.1848
35.9400 5.5013
36.0217 2.6931
36.1033 5.4296
36.1850 5.6711
36.2667 7.7258
36.3484 6.0085
36.4301 7.0119
36.5117 4.6943
36.5934 4.5829
36.6751 6.8896
36.7568 3.5485
36.8385 6.2823
36.9202 2.5740
37.0018 4.9950
37.0835 3.9714
37.1652 3.9376
37.2469 3.6003
37.3286 3.7178
37.4102 6.0205
37.4919 5.0022
37.5736 4.6503
37.6553 3.5225
37.7370 4.0214
37.8187 4.2505
37.9003 2.9352
37.9820 5.5712
38.0637 6.1348
38.1454 5.7779
38.2271 3.3729
38.3087 3.5218
38.3904 2.8198
38.4721 5.0129
38.5538 6.9996
38.6355 3.8423
38.7172 4.3979
38.7988 3.0702
38.8805 5.2213
38.9622 5.4434
39.0439 3.8156
39.1256 5.7850
39.2072 3.5450
39.2889 2.8830
39.3706 3.9311
39.4523 4.2186
39.5340 4.1583
39.6157 5.4681
39.6973 6.3686
39.7790 5.8365
39.8607 7.0285
39.9424 5.2227
40.0241 4.2836
40.1057 5.2138
40.1874 7.0808
40.2691 4.5016
40.3508 4.2370
40.4325 5.8801
40.5142 5.5090
40.5958 3.5963
40.6775 7.3051
40.7592 4.1272




