EXFO_Electro_Optical_Engineering   -  OTDR_REPORT

TRACE_FILE:  TRACE042.asc
OTDR:  FTB-7323B-89
SERIAL_NUMBER:  54431-2C
WAVELENGTH:  1550.0 (SM)
DISTANCE_RANGE:  40.0000 km
PULSE_WIDTH:  275 ns
ACQUISITION_TIME: 1.00 min
FIBER_INDEX:  1.4681
HELIX_FACTOR:  0.00 %
RBS_FACTOR:  -82.29 dB
JOB_ID:  
CABLE_ID:  
FIBER_ID:  
FIBER_TYPE:  
OPERATOR_A:  
OPERATOR_B:  

DATE:  2011/07/06
TIME:  16:41

NUMBER_OF_AVERAGED_POINTS:  500

                                 FAULT TABLE

-------------------------------------------------------------------------------
No,Loc(km),Event Type,Loss(dB),Refl(dB),Atten(dB/km),Cumul(dB)

 1,0.0000,Launch Level,- - -, >-15.9 ,, 0.000

,,Fiber Section  (10.5497 km), 1.989 ,, 0.189 , 1.989
 2,10.5497,Reflective Fault, 5.301 , -40.5 ,, 7.290

,,Fiber Section  (1.0108 km), 0.266 ,, 0.263 , 7.556
 3,11.5605,Reflective Fault, 0.716 , -23.3 ,, 8.272

,,Fiber Section  (5.4344 km), 1.111 ,, 0.205 , 9.384
 4,16.9949,Reflective Fault, 1.660 , -60.9 ,,11.043

,,Fiber Section  (4.1071 km), 0.768 ,, 0.187 ,11.812


  Link Loss: 11.81 dB    Link Length: 21.1020 km    Average Loss: 0.560 dB/km


POS(km)  VAL(dB)

0.0000 36.8302
0.0817 24.7740
0.1634 23.6205
0.2450 23.2130
0.3267 23.0000
0.4084 22.8621
0.4901 22.7719
0.5718 22.6976
0.6535 22.6623
0.7351 22.6242
0.8168 22.6064
0.8985 22.5679
0.9802 22.5439
1.0619 22.5323
1.1435 22.5194
1.2252 22.4983
1.3069 22.4708
1.3886 22.4664
1.4703 22.4526
1.5520 22.4358
1.6336 22.4163
1.7153 22.4085
1.7970 22.3976
1.8787 22.3791
1.9604 22.3625
2.0420 22.3514
2.1237 22.3321
2.2054 22.3216
2.2871 22.3107
2.3688 22.2980
2.4505 22.2780
2.5321 22.2662
2.6138 22.2528
2.6955 22.2330
2.7772 22.2166
2.8589 22.1969
2.9405 22.1891
3.0222 22.1756
3.1039 22.1539
3.1856 22.1476
3.2673 22.1230
3.3490 22.1136
3.4306 22.0981
3.5123 22.0812
3.5940 22.0706
3.6757 22.0483
3.7574 22.0326
3.8390 22.0185
3.9207 22.0033
4.0024 21.9920
4.0841 21.9849
4.1658 21.9619
4.2475 21.9472
4.3291 21.9329
4.4108 21.9185
4.4925 21.8992
4.5742 21.8916
4.6559 21.8739
4.7375 21.8541
4.8192 21.8420
4.9009 21.8295
4.9826 21.8061
5.0643 21.7871
5.1460 21.7788
5.2276 21.7589
5.3093 21.7523
5.3910 21.7372
5.4727 21.7192
5.5544 21.6984
5.6360 21.6842
5.7177 21.6665
5.7994 21.6541
5.8811 21.6477
5.9628 21.6227
6.0445 21.6084
6.1261 21.5929
6.2078 21.5835
6.2895 21.5674
6.3712 21.5485
6.4529 21.5318
6.5345 21.5155
6.6162 21.5045
6.6979 21.4888
6.7796 21.4683
6.8613 21.4557
6.9429 21.4457
7.0246 21.4298
7.1063 21.4105
7.1880 21.3987
7.2697 21.3757
7.3514 21.3596
7.4330 21.3521
7.5147 21.3311
7.5964 21.3127
7.6781 21.3076
7.7598 21.2912
7.8414 21.2663
7.9231 21.2562
8.0048 21.2412
8.0865 21.2298
8.1682 21.2087
8.2499 21.1894
8.3315 21.1676
8.4132 21.1541
8.4949 21.1398
8.5766 21.1251
8.6583 21.1101
8.7399 21.0901
8.8216 21.0772
8.9033 21.0572
8.9850 21.0412
9.0667 21.0300
9.1484 21.0067
9.2300 20.9968
9.3117 20.9802
9.3934 20.9622
9.4751 20.9460
9.5568 20.9293
9.6384 20.9112
9.7201 20.8969
9.8018 20.8753
9.8835 20.8592
9.9652 20.8440
10.0469 20.8275
10.1285 20.8108
10.2102 20.7927
10.2919 20.7723
10.3736 20.7538
10.4553 20.7405
10.5369 24.7631
10.6186 24.4514
10.7003 19.6916
10.7820 16.4929
10.8637 15.6297
10.9454 15.4301
11.0270 15.3530
11.1087 15.2980
11.1904 15.2596
11.2721 15.2276
11.3538 15.2080
11.4354 15.1820
11.5171 20.2345
11.5988 28.6283
11.6805 23.8936
11.7622 18.9374
11.8439 16.1010
11.9255 15.1865
12.0072 14.8241
12.0889 14.6427
12.1706 14.5231
12.2523 14.4245
12.3339 14.3685
12.4156 14.3104
12.4973 14.2606
12.5790 14.2223
12.6607 14.1908
12.7424 14.1563
12.8240 14.1315
12.9057 14.0982
12.9874 14.0890
13.0691 14.0633
13.1508 14.0309
13.2324 14.0015
13.3141 13.9946
13.3958 13.9801
13.4775 13.9604
13.5592 13.9449
13.6409 13.9106
13.7225 13.9009
13.8042 13.8912
13.8859 13.8700
13.9676 13.8317
14.0493 13.8309
14.1309 13.8058
14.2126 13.7940
14.2943 13.7801
14.3760 13.7622
14.4577 13.7487
14.5394 13.7365
14.6210 13.7066
14.7027 13.7043
14.7844 13.6927
14.8661 13.6651
14.9478 13.6496
15.0294 13.6327
15.1111 13.6278
15.1928 13.5992
15.2745 13.5728
15.3562 13.5522
15.4379 13.5813
15.5195 13.5402
15.6012 13.5323
15.6829 13.5075
15.7646 13.4928
15.8463 13.4941
15.9279 13.4523
16.0096 13.4411
16.0913 13.4308
16.1730 13.4122
16.2547 13.3936
16.3364 13.3810
16.4180 13.3582
16.4997 13.3462
16.5814 13.3417
16.6631 13.3241
16.7448 13.3077
16.8264 13.2831
16.9081 13.2589
16.9898 13.2993
17.0715 12.1394
17.1532 11.6523
17.2349 11.5761
17.3165 11.5230
17.3982 11.4685
17.4799 11.5240
17.5616 11.4716
17.6433 11.4240
17.7249 11.4737
17.8066 11.4503
17.8883 11.4074
17.9700 11.3716
18.0517 11.3639
18.1334 11.4067
18.2150 11.3168
18.2967 11.3231
18.3784 11.3289
18.4601 11.2839
18.5418 11.2916
18.6234 11.2689
18.7051 11.2395
18.7868 11.2433
18.8685 11.2325
18.9502 11.2010
19.0318 11.2321
19.1135 11.1615
19.1952 11.1961
19.2769 11.0711
19.3586 11.1617
19.4403 11.1544
19.5219 11.1191
19.6036 11.0345
19.6853 11.0501
19.7670 11.0685
19.8487 11.0634
19.9303 11.0170
20.0120 11.0081
20.0937 10.9867
20.1754 11.0171
20.2571 10.9569
20.3388 10.9414
20.4204 10.8628
20.5021 10.9223
20.5838 10.8879
20.6655 10.8601
20.7472 10.8964
20.8288 10.8788
20.9105 10.8922
20.9922 10.7828
21.0739 11.1680
21.1556 9.5104
21.2373 6.0079
21.3189 2.8245
21.4006 2.8403
21.4823 1.5984
21.5640 2.5542
21.6457 3.1681
21.7273 3.9955
21.8090 3.7084
21.8907 2.2822
21.9724 3.8955
22.0541 3.0567
22.1358 1.8016
22.2174 2.6565
22.2991 3.6240
22.3808 2.4777
22.4625 2.1526
22.5442 4.2393
22.6258 3.3411
22.7075 3.6107
22.7892 1.9792
22.8709 3.7982
22.9526 2.4983
23.0343 2.6898
23.1159 1.3907
23.1976 2.4938
23.2793 1.3677
23.3610 1.4773
23.4427 1.9621
23.5243 1.6458
23.6060 2.3065
23.6877 3.8797
23.7694 2.5353
23.8511 2.6412
23.9328 1.8921
24.0144 2.2692
24.0961 2.9690
24.1778 2.7312
24.2595 0.8159
24.3412 2.3437
24.4228 2.0801
24.5045 2.4166
24.5862 2.3835
24.6679 0.9619
24.7496 0.9730
24.8313 1.3462
24.9129 1.1240
24.9946 3.0282
25.0763 1.8229
25.1580 3.5823
25.2397 1.7285
25.3213 2.9567
25.4030 1.5607
25.4847 2.2267
25.5664 2.0849
25.6481 3.3449
25.7298 3.6057
25.8114 1.4425
25.8931 1.1970
25.9748 2.6319
26.0565 3.2938
26.1382 2.9579
26.2198 2.3847
26.3015 1.5411
26.3832 1.9483
26.4649 1.7496
26.5466 0.9718
26.6283 4.1159
26.7099 2.2202
26.7916 0.9101
26.8733 2.7255
26.9550 2.5783
27.0367 2.5848
27.1183 2.8792
27.2000 2.4176
27.2817 3.1657
27.3634 2.8392
27.4451 2.8765
27.5268 2.2783
27.6084 3.1274
27.6901 2.6801
27.7718 1.1967
27.8535 4.2178
27.9352 2.0341
28.0168 1.4126
28.0985 1.6700
28.1802 2.2339
28.2619 2.3779
28.3436 2.0278
28.4253 3.6004
28.5069 2.4082
28.5886 2.9028
28.6703 2.2964
28.7520 2.6053
28.8337 1.8601
28.9153 1.6545
28.9970 2.0824
29.0787 2.1512
29.1604 1.6661
29.2421 3.6512
29.3238 1.7539
29.4054 1.0893
29.4871 1.7846
29.5688 2.0552
29.6505 1.8602
29.7322 1.3895
29.8138 1.1341
29.8955 3.0683
29.9772 1.7950
30.0589 2.1839
30.1406 1.3557
30.2223 2.1557
30.3039 0.3157
30.3856 2.3102
30.4673 3.2974
30.5490 1.9532
30.6307 2.4765
30.7123 2.1091
30.7940 1.9798
30.8757 2.0793
30.9574 1.5054
31.0391 1.9673
31.1207 1.4677
31.2024 2.3940
31.2841 3.1746
31.3658 1.5916
31.4475 2.2383
31.5292 2.7083
31.6108 2.1418
31.6925 2.7526
31.7742 1.8287
31.8559 3.9744
31.9376 1.3160
32.0192 1.8396
32.1009 1.6422
32.1826 3.6858
32.2643 3.4180
32.3460 3.1611
32.4277 3.0834
32.5093 2.9832
32.5910 2.0071
32.6727 2.1970
32.7544 2.4465
32.8361 2.5650
32.9177 1.2537
32.9994 2.9255
33.0811 2.1668
33.1628 1.5609
33.2445 3.4691
33.3262 1.5281
33.4078 1.2261
33.4895 1.9357
33.5712 0.6619
33.6529 1.8741
33.7346 0.6359
33.8162 2.0739
33.8979 1.9149
33.9796 2.0832
34.0613 2.7843
34.1430 1.5840
34.2247 2.6492
34.3063 2.6305
34.3880 0.2219
34.4697 0.3046
34.5514 0.9791
34.6331 1.6914
34.7147 1.7317
34.7964 2.2336
34.8781 1.4777
34.9598 1.9008
35.0415 1.3447
35.1232 3.1687
35.2048 2.2904
35.2865 2.3825
35.3682 3.3430
35.4499 2.6631
35.5316 1.0676
35.6132 1.9748
35.6949 3.5038
35.7766 0.6730
35.8583 1.5674
35.9400 2.0416
36.0217 2.8433
36.1033 1.1489
36.1850 2.9099
36.2667 2.3246
36.3484 1.9461
36.4301 1.2044
36.5117 1.2408
36.5934 1.8641
36.6751 2.8657
36.7568 2.1676
36.8385 0.8063
36.9202 2.2817
37.0018 2.1584
37.0835 2.3366
37.1652 3.3509
37.2469 2.5705
37.3286 1.0956
37.4102 2.0211
37.4919 1.8275
37.5736 3.8481
37.6553 1.8738
37.7370 1.0558
37.8187 1.0767
37.9003 2.7768
37.9820 1.7775
38.0637 1.0253
38.1454 2.2503
38.2271 1.7930
38.3087 3.5251
38.3904 2.2720
38.4721 2.7686
38.5538 2.8147
38.6355 1.3907
38.7172 1.7182
38.7988 1.4419
38.8805 1.7447
38.9622 0.8743
39.0439 1.4091
39.1256 2.6747
39.2072 2.4720
39.2889 1.4287
39.3706 0.6266
39.4523 1.7097
39.5340 3.2942
39.6157 2.3873
39.6973 2.4066
39.7790 1.3008
39.8607 2.5639
39.9424 2.5604
40.0241 2.2086
40.1057 1.0806
40.1874 1.7208
40.2691 2.2928
40.3508 1.9323
40.4325 1.4372
40.5142 1.9497
40.5958 1.3781
40.6775 2.6205
40.7592 3.1794




