EXFO_Electro_Optical_Engineering   -  OTDR_REPORT

TRACE_FILE:  TRACE039.asc
OTDR:  FTB-7323B-89
SERIAL_NUMBER:  54431-2C
WAVELENGTH:  1550.0 (SM)
DISTANCE_RANGE:  40.0000 km
PULSE_WIDTH:  1.0 µs
ACQUISITION_TIME: 0.98 min
FIBER_INDEX:  1.4681
HELIX_FACTOR:  0.00 %
RBS_FACTOR:  -82.29 dB
JOB_ID:  
CABLE_ID:  
FIBER_ID:  
FIBER_TYPE:  
OPERATOR_A:  
OPERATOR_B:  

DATE:  2011/07/06
TIME:  16:32

NUMBER_OF_AVERAGED_POINTS:  500

                                 FAULT TABLE

-------------------------------------------------------------------------------
No,Loc(km),Event Type,Loss(dB),Refl(dB),Atten(dB/km),Cumul(dB)

 1,0.0000,Launch Level,- - -, >-16.4 ,, 0.000

,,Fiber Section  (10.5318 km), 1.932 ,, 0.183 , 1.932
 2,10.5318,Non-Reflective Fault, 0.855 ,,, 2.788

,,Fiber Section  (10.5676 km), 1.983 ,, 0.188 , 4.771


  Link Loss: 4.77 dB    Link Length: 21.0994 km    Average Loss: 0.226 dB/km


POS(km)  VAL(dB)

0.0000 44.8587
0.0817 38.9670
0.1634 30.9330
0.2450 29.8172
0.3267 29.1051
0.4084 28.5429
0.4901 28.1065
0.5718 27.7319
0.6535 27.4422
0.7351 27.2019
0.8168 27.0121
0.8985 26.8498
0.9802 26.7512
1.0619 26.6539
1.1435 26.6289
1.2252 26.6248
1.3069 26.6117
1.3886 26.6076
1.4703 26.6071
1.5520 26.5990
1.6336 26.5801
1.7153 26.5785
1.7970 26.5749
1.8787 26.5623
1.9604 26.5467
2.0420 26.5350
2.1237 26.5197
2.2054 26.5109
2.2871 26.5019
2.3688 26.4899
2.4505 26.4777
2.5321 26.4641
2.6138 26.4519
2.6955 26.4371
2.7772 26.4248
2.8589 26.4042
2.9405 26.3933
3.0222 26.3831
3.1039 26.3653
3.1856 26.3525
3.2673 26.3366
3.3490 26.3226
3.4306 26.3081
3.5123 26.2906
3.5940 26.2790
3.6757 26.2614
3.7574 26.2500
3.8390 26.2347
3.9207 26.2218
4.0024 26.2047
4.0841 26.1944
4.1658 26.1796
4.2475 26.1620
4.3291 26.1516
4.4108 26.1334
4.4925 26.1147
4.5742 26.1075
4.6559 26.0915
4.7375 26.0739
4.8192 26.0633
4.9009 26.0472
4.9826 26.0273
5.0643 26.0104
5.1460 25.9961
5.2276 25.9814
5.3093 25.9669
5.3910 25.9600
5.4727 25.9423
5.5544 25.9250
5.6360 25.9069
5.7177 25.8890
5.7994 25.8773
5.8811 25.8648
5.9628 25.8472
6.0445 25.8307
6.1261 25.8147
6.2078 25.8051
6.2895 25.7906
6.3712 25.7726
6.4529 25.7545
6.5345 25.7409
6.6162 25.7296
6.6979 25.7128
6.7796 25.6936
6.8613 25.6798
6.9429 25.6667
7.0246 25.6519
7.1063 25.6345
7.1880 25.6235
7.2697 25.6042
7.3514 25.5887
7.4330 25.5712
7.5147 25.5595
7.5964 25.5405
7.6781 25.5273
7.7598 25.5148
7.8414 25.4948
7.9231 25.4797
8.0048 25.4653
8.0865 25.4518
8.1682 25.4304
8.2499 25.4167
8.3315 25.3971
8.4132 25.3822
8.4949 25.3658
8.5766 25.3523
8.6583 25.3333
8.7399 25.3192
8.8216 25.3045
8.9033 25.2904
8.9850 25.2697
9.0667 25.2563
9.1484 25.2397
9.2300 25.2231
9.3117 25.2066
9.3934 25.1922
9.4751 25.1739
9.5568 25.1548
9.6384 25.1395
9.7201 25.1226
9.8018 25.1040
9.8835 25.0881
9.9652 25.0719
10.0469 25.0570
10.1285 25.0392
10.2102 25.0223
10.2919 24.9986
10.3736 24.9831
10.4553 24.9680
10.5369 24.7566
10.6186 24.1844
10.7003 24.0683
10.7820 24.0469
10.8637 24.0332
10.9454 24.0193
11.0270 24.0031
11.1087 23.9846
11.1904 23.9679
11.2721 23.9544
11.3538 23.9423
11.4354 23.9208
11.5171 23.9073
11.5988 23.8881
11.6805 23.8742
11.7622 23.8615
11.8439 23.8494
11.9255 23.8289
12.0072 23.8137
12.0889 23.8000
12.1706 23.7864
12.2523 23.7722
12.3339 23.7497
12.4156 23.7362
12.4973 23.7259
12.5790 23.7144
12.6607 23.6908
12.7424 23.6706
12.8240 23.6567
12.9057 23.6440
12.9874 23.6270
13.0691 23.6167
13.1508 23.5966
13.2324 23.5800
13.3141 23.5616
13.3958 23.5477
13.4775 23.5398
13.5592 23.5201
13.6409 23.5076
13.7225 23.4947
13.8042 23.4783
13.8859 23.4594
13.9676 23.4436
14.0493 23.4276
14.1309 23.4107
14.2126 23.3966
14.2943 23.3792
14.3760 23.3663
14.4577 23.3526
14.5394 23.3373
14.6210 23.3208
14.7027 23.3035
14.7844 23.2843
14.8661 23.2715
14.9478 23.2596
15.0294 23.2477
15.1111 23.2309
15.1928 23.2130
15.2745 23.1996
15.3562 23.1786
15.4379 23.1672
15.5195 23.1568
15.6012 23.1345
15.6829 23.1196
15.7646 23.1049
15.8463 23.0878
15.9279 23.0693
16.0096 23.0602
16.0913 23.0435
16.1730 23.0309
16.2547 23.0130
16.3364 22.9970
16.4180 22.9782
16.4997 22.9615
16.5814 22.9533
16.6631 22.9444
16.7448 22.9238
16.8264 22.9049
16.9081 22.8938
16.9898 22.8802
17.0715 22.8596
17.1532 22.8499
17.2349 22.8381
17.3165 22.8194
17.3982 22.7986
17.4799 22.7831
17.5616 22.7671
17.6433 22.7545
17.7249 22.7448
17.8066 22.7277
17.8883 22.7064
17.9700 22.6908
18.0517 22.6775
18.1334 22.6573
18.2150 22.6412
18.2967 22.6310
18.3784 22.6147
18.4601 22.6000
18.5418 22.5848
18.6234 22.5667
18.7051 22.5573
18.7868 22.5408
18.8685 22.5252
18.9502 22.5071
19.0318 22.4890
19.1135 22.4772
19.1952 22.4628
19.2769 22.4450
19.3586 22.4314
19.4403 22.4175
19.5219 22.4010
19.6036 22.3840
19.6853 22.3682
19.7670 22.3563
19.8487 22.3394
19.9303 22.3248
20.0120 22.3065
20.0937 22.2909
20.1754 22.2774
20.2571 22.2628
20.3388 22.2490
20.4204 22.2348
20.5021 22.2210
20.5838 22.2032
20.6655 22.1890
20.7472 22.1743
20.8288 22.1604
20.9105 22.1407
20.9922 22.1225
21.0739 32.8672
21.1556 38.2775
21.2373 29.9980
21.3189 24.5835
21.4006 20.4817
21.4823 18.4763
21.5640 17.3865
21.6457 16.5628
21.7273 15.8550
21.8090 15.2415
21.8907 14.6806
21.9724 14.1399
22.0541 13.7091
22.1358 13.2414
22.2174 12.8387
22.2991 12.5028
22.3808 12.1612
22.4625 11.8349
22.5442 11.6035
22.6258 11.3362
22.7075 11.1358
22.7892 10.9146
22.8709 10.7861
22.9526 10.6238
23.0343 10.3540
23.1159 10.2769
23.1976 10.1979
23.2793 10.0138
23.3610 9.8019
23.4427 9.8864
23.5243 9.8064
23.6060 9.7386
23.6877 9.6571
23.7694 9.5049
23.8511 9.2298
23.9328 9.4563
24.0144 9.3347
24.0961 9.2988
24.1778 9.2782
24.2595 9.1118
24.3412 9.1603
24.4228 8.9013
24.5045 8.8793
24.5862 8.8504
24.6679 8.9313
24.7496 8.6396
24.8313 8.9898
24.9129 8.8517
24.9946 8.7775
25.0763 8.7561
25.1580 8.4653
25.2397 8.7448
25.3213 8.5772
25.4030 8.5905
25.4847 8.3219
25.5664 8.4602
25.6481 8.4048
25.7298 8.4443
25.8114 8.0245
25.8931 8.3519
25.9748 8.2989
26.0565 8.2671
26.1382 8.3693
26.2198 8.1105
26.3015 8.2004
26.3832 8.2649
26.4649 7.9689
26.5466 8.3005
26.6283 8.2890
26.7099 7.5830
26.7916 7.8566
26.8733 7.7412
26.9550 7.7781
27.0367 7.5137
27.1183 7.7079
27.2000 7.8418
27.2817 7.8721
27.3634 7.6223
27.4451 8.0404
27.5268 8.0888
27.6084 8.0136
27.6901 7.8228
27.7718 7.3336
27.8535 7.1448
27.9352 7.7828
28.0168 7.6551
28.0985 7.6102
28.1802 7.3522
28.2619 7.4442
28.3436 7.2762
28.4253 7.2003
28.5069 7.2472
28.5886 7.2107
28.6703 7.4550
28.7520 7.1790
28.8337 7.3627
28.9153 7.5539
28.9970 7.2433
29.0787 7.0800
29.1604 7.1395
29.2421 7.0316
29.3238 7.1776
29.4054 7.0488
29.4871 7.1112
29.5688 7.3702
29.6505 7.3194
29.7322 7.2121
29.8138 7.0107
29.8955 7.0674
29.9772 6.8873
30.0589 7.4212
30.1406 7.3452
30.2223 7.0316
30.3039 6.4480
30.3856 6.8975
30.4673 7.2933
30.5490 7.0215
30.6307 6.7679
30.7123 7.0069
30.7940 6.7214
30.8757 7.1300
30.9574 6.8341
31.0391 6.7704
31.1207 6.7767
31.2024 7.1578
31.2841 7.2081
31.3658 7.3240
31.4475 6.1009
31.5292 6.6881
31.6108 6.2272
31.6925 5.7670
31.7742 5.9290
31.8559 5.9154
31.9376 6.4341
32.0192 5.8412
32.1009 5.9514
32.1826 6.4340
32.2643 4.6891
32.3460 5.9113
32.4277 6.2150
32.5093 4.9291
32.5910 6.1501
32.6727 5.7406
32.7544 5.7143
32.8361 6.1918
32.9177 5.8202
32.9994 6.1407
33.0811 5.2560
33.1628 5.7653
33.2445 6.6516
33.3262 6.0461
33.4078 4.8664
33.4895 5.6696
33.5712 4.6559
33.6529 6.5955
33.7346 5.9200
33.8162 5.6062
33.8979 6.1858
33.9796 5.4676
34.0613 4.2455
34.1430 4.6422
34.2247 5.8929
34.3063 6.5534
34.3880 6.0054
34.4697 6.2420
34.5514 6.0252
34.6331 5.9906
34.7147 2.6686
34.7964 4.8711
34.8781 6.1328
34.9598 6.6587
35.0415 5.5713
35.1232 5.4207
35.2048 5.1466
35.2865 5.2081
35.3682 6.0300
35.4499 5.6794
35.5316 5.2773
35.6132 5.5990
35.6949 5.8436
35.7766 5.6174
35.8583 5.2573
35.9400 3.6099
36.0217 5.0725
36.1033 4.0791
36.1850 4.0672
36.2667 4.8665
36.3484 5.3247
36.4301 5.5768
36.5117 5.2028
36.5934 5.2179
36.6751 5.3989
36.7568 5.7240
36.8385 5.0437
36.9202 5.8981
37.0018 2.2757
37.0835 4.8858
37.1652 4.9684
37.2469 4.6594
37.3286 5.7868
37.4102 4.9739
37.4919 2.9220
37.5736 5.6889
37.6553 5.5124
37.7370 5.1599
37.8187 5.4739
37.9003 4.6325
37.9820 3.4128
38.0637 5.7245
38.1454 3.8476
38.2271 5.8259
38.3087 5.1942
38.3904 5.7342
38.4721 3.9069
38.5538 4.2123
38.6355 3.8725
38.7172 4.8828
38.7988 5.9044
38.8805 4.8918
38.9622 3.7859
39.0439 3.2912
39.1256 5.0069
39.2072 4.8347
39.2889 4.5518
39.3706 4.8371
39.4523 4.3516
39.5340 3.7937
39.6157 2.4718
39.6973 5.8656
39.7790 4.6802
39.8607 3.5266
39.9424 1.2191
40.0241 2.4509
40.1057 5.6110
40.1874 5.8614
40.2691 3.7600
40.3508 5.0237
40.4325 4.8936
40.5142 5.1192
40.5958 2.0296
40.6775 1.0458
40.7592 3.6398




