EXFO_Electro_Optical_Engineering   -  OTDR_REPORT

TRACE_FILE:  TRACE002.asc
OTDR:  FTB-7323B-89
SERIAL_NUMBER:  54431-2C
WAVELENGTH:  1550.0 (SM)
DISTANCE_RANGE:  40.0000 km
PULSE_WIDTH:  100 ns
ACQUISITION_TIME: 0.50 min
FIBER_INDEX:  1.4681
HELIX_FACTOR:  0.00 %
RBS_FACTOR:  -82.29 dB
JOB_ID:  
CABLE_ID:  
FIBER_ID:  
FIBER_TYPE:  
OPERATOR_A:  
OPERATOR_B:  

DATE:  2011/07/06
TIME:  14:35

NUMBER_OF_AVERAGED_POINTS:  500

                                 FAULT TABLE

-------------------------------------------------------------------------------
No,Loc(km),Event Type,Loss(dB),Refl(dB),Atten(dB/km),Cumul(dB)

 1,0.0000,Launch Level,- - -, >-16.1 ,, 0.000

,,Fiber Section  (10.5344 km), 2.007 ,, 0.191 , 2.007
 2,10.5344,Non-Reflective Fault, 0.818 ,,, 2.825

,,Fiber Section  (10.5650 km), 1.994 ,, 0.189 , 4.819


  Link Loss: 4.82 dB    Link Length: 21.0994 km    Average Loss: 0.228 dB/km


POS(km)  VAL(dB)

0.0000 27.9968
0.0817 21.7066
0.1634 20.9378
0.2450 20.5958
0.3267 20.4012
0.4084 20.2303
0.4901 20.1299
0.5718 20.0724
0.6535 20.0249
0.7351 19.9563
0.8168 19.9253
0.8985 19.8860
0.9802 19.8535
1.0619 19.8493
1.1435 19.8122
1.2252 19.7874
1.3069 19.7844
1.3886 19.7454
1.4703 19.7374
1.5520 19.7381
1.6336 19.7144
1.7153 19.6913
1.7970 19.6898
1.8787 19.6696
1.9604 19.6489
2.0420 19.6226
2.1237 19.6210
2.2054 19.6237
2.2871 19.5860
2.3688 19.5656
2.4505 19.5558
2.5321 19.5292
2.6138 19.5249
2.6955 19.5278
2.7772 19.5012
2.8589 19.4706
2.9405 19.4699
3.0222 19.4500
3.1039 19.4357
3.1856 19.4202
3.2673 19.4077
3.3490 19.3954
3.4306 19.3854
3.5123 19.3649
3.5940 19.3551
3.6757 19.3241
3.7574 19.3186
3.8390 19.3024
3.9207 19.2769
4.0024 19.2933
4.0841 19.2587
4.1658 19.2441
4.2475 19.2176
4.3291 19.2183
4.4108 19.1901
4.4925 19.1931
4.5742 19.1595
4.6559 19.1530
4.7375 19.1139
4.8192 19.1109
4.9009 19.1129
4.9826 19.0772
5.0643 19.0582
5.1460 19.0561
5.2276 19.0400
5.3093 19.0137
5.3910 19.0118
5.4727 18.9857
5.5544 18.9865
5.6360 18.9806
5.7177 18.9300
5.7994 18.9211
5.8811 18.9301
5.9628 18.9057
6.0445 18.8706
6.1261 18.8795
6.2078 18.8536
6.2895 18.8314
6.3712 18.8299
6.4529 18.8153
6.5345 18.8021
6.6162 18.7917
6.6979 18.7576
6.7796 18.7351
6.8613 18.7239
6.9429 18.7169
7.0246 18.6960
7.1063 18.6717
7.1880 18.6778
7.2697 18.6552
7.3514 18.6302
7.4330 18.6241
7.5147 18.6248
7.5964 18.5898
7.6781 18.5914
7.7598 18.5497
7.8414 18.5445
7.9231 18.5257
8.0048 18.5029
8.0865 18.5038
8.1682 18.4726
8.2499 18.4712
8.3315 18.4533
8.4132 18.4331
8.4949 18.4248
8.5766 18.3998
8.6583 18.3759
8.7399 18.3725
8.8216 18.3531
8.9033 18.3492
8.9850 18.3201
9.0667 18.2914
9.1484 18.2749
9.2300 18.2640
9.3117 18.2352
9.3934 18.2191
9.4751 18.2301
9.5568 18.2085
9.6384 18.1881
9.7201 18.1471
9.8018 18.1395
9.8835 18.1354
9.9652 18.1167
10.0469 18.0967
10.1285 18.0627
10.2102 18.0745
10.2919 18.0467
10.3736 18.0345
10.4553 18.0143
10.5369 17.4153
10.6186 17.1550
10.7003 17.1669
10.7820 17.1263
10.8637 17.1028
10.9454 17.0579
11.0270 17.0814
11.1087 17.0600
11.1904 17.0468
11.2721 17.0345
11.3538 17.0343
11.4354 16.9850
11.5171 17.0215
11.5988 16.9696
11.6805 16.9408
11.7622 16.9648
11.8439 16.9488
11.9255 16.8813
12.0072 16.8899
12.0889 16.9178
12.1706 16.8804
12.2523 16.8524
12.3339 16.8108
12.4156 16.8152
12.4973 16.8015
12.5790 16.7958
12.6607 16.7489
12.7424 16.7401
12.8240 16.7459
12.9057 16.7252
12.9874 16.7166
13.0691 16.6868
13.1508 16.6888
13.2324 16.6530
13.3141 16.6422
13.3958 16.6092
13.4775 16.6145
13.5592 16.6004
13.6409 16.5882
13.7225 16.5953
13.8042 16.5467
13.8859 16.5421
13.9676 16.5150
14.0493 16.4920
14.1309 16.4878
14.2126 16.5122
14.2943 16.4623
14.3760 16.4753
14.4577 16.3785
14.5394 16.4529
14.6210 16.3868
14.7027 16.4304
14.7844 16.3495
14.8661 16.3427
14.9478 16.3474
15.0294 16.3328
15.1111 16.3108
15.1928 16.2617
15.2745 16.2970
15.3562 16.2729
15.4379 16.2190
15.5195 16.2578
15.6012 16.2055
15.6829 16.2448
15.7646 16.1881
15.8463 16.1265
15.9279 16.1519
16.0096 16.1389
16.0913 16.1426
16.1730 16.1231
16.2547 16.1310
16.3364 16.1071
16.4180 16.0501
16.4997 16.1013
16.5814 16.0079
16.6631 15.9956
16.7448 15.9842
16.8264 15.9956
16.9081 15.9973
16.9898 15.9597
17.0715 15.9127
17.1532 15.9189
17.2349 15.9237
17.3165 15.8802
17.3982 15.8852
17.4799 15.8847
17.5616 15.8292
17.6433 15.8531
17.7249 15.8198
17.8066 15.8142
17.8883 15.7339
17.9700 15.7600
18.0517 15.7413
18.1334 15.7781
18.2150 15.6926
18.2967 15.7383
18.3784 15.7133
18.4601 15.6870
18.5418 15.6825
18.6234 15.6457
18.7051 15.5677
18.7868 15.5742
18.8685 15.5830
18.9502 15.6281
19.0318 15.5960
19.1135 15.5720
19.1952 15.4998
19.2769 15.4971
19.3586 15.5042
19.4403 15.4997
19.5219 15.4887
19.6036 15.4858
19.6853 15.4687
19.7670 15.3733
19.8487 15.3718
19.9303 15.4006
20.0120 15.3487
20.0937 15.3083
20.1754 15.3927
20.2571 15.3475
20.3388 15.2971
20.4204 15.2899
20.5021 15.3505
20.5838 15.2784
20.6655 15.2910
20.7472 15.2674
20.8288 15.1509
20.9105 15.2955
20.9922 15.1750
21.0739 14.8932
21.1556 4.1305
21.2373 4.1531
21.3189 5.3697
21.4006 3.0573
21.4823 5.8096
21.5640 5.0009
21.6457 5.9805
21.7273 4.2985
21.8090 3.2528
21.8907 4.0017
21.9724 3.8483
22.0541 4.2421
22.1358 4.5889
22.2174 3.5165
22.2991 6.5156
22.3808 6.0869
22.4625 7.6125
22.5442 4.6644
22.6258 2.3112
22.7075 6.2778
22.7892 4.3168
22.8709 3.5889
22.9526 4.3172
23.0343 6.6444
23.1159 2.5052
23.1976 5.5851
23.2793 4.9867
23.3610 5.0250
23.4427 6.0095
23.5243 6.1365
23.6060 0.7618
23.6877 3.4378
23.7694 3.8143
23.8511 4.9349
23.9328 3.1017
24.0144 6.0025
24.0961 5.5095
24.1778 2.6161
24.2595 5.1765
24.3412 3.6548
24.4228 5.3393
24.5045 4.6574
24.5862 3.2412
24.6679 3.2047
24.7496 3.6136
24.8313 3.8989
24.9129 4.2854
24.9946 6.2825
25.0763 4.9182
25.1580 4.1721
25.2397 3.3039
25.3213 5.5787
25.4030 4.0323
25.4847 3.4398
25.5664 3.2044
25.6481 3.0789
25.7298 4.9507
25.8114 5.0124
25.8931 2.9816
25.9748 0.8642
26.0565 6.5909
26.1382 4.5417
26.2198 4.8621
26.3015 1.3834
26.3832 2.9801
26.4649 6.5461
26.5466 3.4682
26.6283 2.2021
26.7099 4.4153
26.7916 3.7318
26.8733 3.4818
26.9550 5.2350
27.0367 4.2536
27.1183 4.1214
27.2000 5.3935
27.2817 4.2294
27.3634 3.0584
27.4451 3.1578
27.5268 3.9579
27.6084 2.8124
27.6901 5.6741
27.7718 2.6384
27.8535 5.2038
27.9352 2.4726
28.0168 3.4831
28.0985 1.9568
28.1802 3.2468
28.2619 3.0815
28.3436 4.5888
28.4253 4.3748
28.5069 3.6038
28.5886 4.7635
28.6703 3.3015
28.7520 3.7633
28.8337 4.9780
28.9153 2.2946
28.9970 3.1271
29.0787 2.5730
29.1604 1.5858
29.2421 4.2961
29.3238 2.5521
29.4054 4.4868
29.4871 1.7327
29.5688 3.5604
29.6505 2.5910
29.7322 1.4325
29.8138 3.6775
29.8955 3.8139
29.9772 4.0555
30.0589 1.9642
30.1406 6.1819
30.2223 5.7280
30.3039 3.7523
30.3856 3.8600
30.4673 4.9292
30.5490 3.3521
30.6307 5.0295
30.7123 2.0400
30.7940 2.9278
30.8757 2.8601
30.9574 3.7435
31.0391 4.0652
31.1207 4.1021
31.2024 5.1390
31.2841 3.0920
31.3658 3.2944
31.4475 4.2881
31.5292 3.4418
31.6108 5.6646
31.6925 3.9878
31.7742 3.9180
31.8559 5.0780
31.9376 4.2639
32.0192 1.8803
32.1009 2.1521
32.1826 4.5965
32.2643 4.3853
32.3460 5.7778
32.4277 3.4915
32.5093 4.2817
32.5910 2.4046
32.6727 5.1423
32.7544 4.9197
32.8361 4.8379
32.9177 5.1799
32.9994 4.7630
33.0811 2.7377
33.1628 7.4812
33.2445 4.4045
33.3262 1.4813
33.4078 4.0809
33.4895 4.2145
33.5712 4.7452
33.6529 4.4668
33.7346 2.2431
33.8162 2.6996
33.8979 4.4868
33.9796 4.4995
34.0613 6.7090
34.1430 3.2383
34.2247 4.0915
34.3063 2.0476
34.3880 5.3978
34.4697 4.4174
34.5514 4.6996
34.6331 3.9503
34.7147 5.6666
34.7964 2.9529
34.8781 3.7599
34.9598 4.2006
35.0415 2.7935
35.1232 3.2903
35.2048 3.4753
35.2865 2.6077
35.3682 2.7768
35.4499 4.5451
35.5316 5.2101
35.6132 3.4996
35.6949 6.3658
35.7766 1.9681
35.8583 5.8257
35.9400 2.4972
36.0217 5.4072
36.1033 6.8919
36.1850 4.0039
36.2667 4.3421
36.3484 3.7992
36.4301 3.5773
36.5117 2.6697
36.5934 5.2254
36.6751 3.7368
36.7568 2.5178
36.8385 4.1399
36.9202 4.3934
37.0018 3.1447
37.0835 5.3275
37.1652 3.0806
37.2469 4.3017
37.3286 4.3837
37.4102 3.4662
37.4919 5.4077
37.5736 4.2160
37.6553 4.7413
37.7370 3.2213
37.8187 5.3511
37.9003 1.3641
37.9820 2.6558
38.0637 7.8586
38.1454 3.7629
38.2271 2.2843
38.3087 2.7568
38.3904 6.4058
38.4721 2.7531
38.5538 4.4525
38.6355 4.3715
38.7172 4.9503
38.7988 3.1956
38.8805 4.2432
38.9622 5.0069
39.0439 2.7798
39.1256 3.7292
39.2072 4.0649
39.2889 4.8197
39.3706 4.1815
39.4523 6.2758
39.5340 1.3295
39.6157 3.8348
39.6973 3.8016
39.7790 4.6737
39.8607 3.1373
39.9424 6.6006
40.0241 3.9674
40.1057 4.0270
40.1874 4.5601
40.2691 2.6309
40.3508 1.5909
40.4325 4.0561
40.5142 2.7170
40.5958 5.2157
40.6775 5.1734
40.7592 4.8736




