EXFO_Electro_Optical_Engineering   -  OTDR_REPORT

TRACE_FILE:  TRACE000.asc
OTDR:  FTB-7323B-89
SERIAL_NUMBER:  54431-2C
WAVELENGTH:  1550.0 (SM)
DISTANCE_RANGE:  40.0000 km
PULSE_WIDTH:  2.5 µs
ACQUISITION_TIME: 0.50 min
FIBER_INDEX:  1.4681
HELIX_FACTOR:  0.00 %
RBS_FACTOR:  -82.29 dB
JOB_ID:  
CABLE_ID:  
FIBER_ID:  
FIBER_TYPE:  
OPERATOR_A:  
OPERATOR_B:  

DATE:  2011/07/06
TIME:  14:26

NUMBER_OF_AVERAGED_POINTS:  500

                                 FAULT TABLE

-------------------------------------------------------------------------------
No,Loc(km),Event Type,Loss(dB),Refl(dB),Atten(dB/km),Cumul(dB)

 1,0.0000,Launch Level,- - -, >-16.0 ,, 0.000

,,Fiber Section  (10.5497 km), 1.991 ,, 0.189 , 1.991
 2,10.5497,Non-Reflective Fault, 0.802 ,,, 2.792

,,Fiber Section  (10.5267 km), 1.984 ,, 0.189 , 4.777


  Link Loss: 4.78 dB    Link Length: 21.0764 km    Average Loss: 0.227 dB/km


POS(km)  VAL(dB)

0.0000 45.7077
0.0817 45.7131
0.1634 45.6797
0.2450 38.7547
0.3267 32.6558
0.4084 31.8170
0.4901 31.2359
0.5718 30.7823
0.6535 30.4336
0.7351 30.1536
0.8168 29.9285
0.8985 29.7658
0.9802 29.6094
1.0619 29.4978
1.1435 29.4144
1.2252 29.3638
1.3069 29.3163
1.3886 29.2918
1.4703 29.2686
1.5520 29.2486
1.6336 29.2287
1.7153 29.2154
1.7970 29.2006
1.8787 29.1836
1.9604 29.1714
2.0420 29.1615
2.1237 29.1462
2.2054 29.1327
2.2871 29.1192
2.3688 29.1048
2.4505 29.0922
2.5321 29.0771
2.6138 29.0606
2.6955 29.0435
2.7772 29.0289
2.8589 29.0197
2.9405 29.0049
3.0222 28.9839
3.1039 28.9675
3.1856 28.9558
3.2673 28.9462
3.3490 28.9323
3.4306 28.9196
3.5123 28.9076
3.5940 28.8926
3.6757 28.8766
3.7574 28.8588
3.8390 28.8451
3.9207 28.8299
4.0024 28.8152
4.0841 28.8013
4.1658 28.7856
4.2475 28.7698
4.3291 28.7533
4.4108 28.7330
4.4925 28.7189
4.5742 28.7098
4.6559 28.6920
4.7375 28.6715
4.8192 28.6534
4.9009 28.6397
4.9826 28.6282
5.0643 28.6150
5.1460 28.5972
5.2276 28.5798
5.3093 28.5645
5.3910 28.5488
5.4727 28.5367
5.5544 28.5226
5.6360 28.5104
5.7177 28.4951
5.7994 28.4783
5.8811 28.4608
5.9628 28.4419
6.0445 28.4266
6.1261 28.4131
6.2078 28.3964
6.2895 28.3803
6.3712 28.3680
6.4529 28.3533
6.5345 28.3363
6.6162 28.3184
6.6979 28.3057
6.7796 28.2904
6.8613 28.2755
6.9429 28.2599
7.0246 28.2434
7.1063 28.2263
7.1880 28.2104
7.2697 28.1964
7.3514 28.1787
7.4330 28.1614
7.5147 28.1481
7.5964 28.1343
7.6781 28.1208
7.7598 28.1053
7.8414 28.0882
7.9231 28.0707
8.0048 28.0539
8.0865 28.0398
8.1682 28.0252
8.2499 28.0086
8.3315 27.9964
8.4132 27.9810
8.4949 27.9664
8.5766 27.9484
8.6583 27.9286
8.7399 27.9117
8.8216 27.8951
8.9033 27.8794
8.9850 27.8626
9.0667 27.8472
9.1484 27.8314
9.2300 27.8110
9.3117 27.7946
9.3934 27.7776
9.4751 27.7625
9.5568 27.7474
9.6384 27.7327
9.7201 27.7179
9.8018 27.7008
9.8835 27.6842
9.9652 27.6688
10.0469 27.6497
10.1285 27.6294
10.2102 27.6102
10.2919 27.5957
10.3736 27.5801
10.4553 27.5613
10.5369 27.5195
10.6186 27.3473
10.7003 27.0930
10.7820 26.8238
10.8637 26.6939
10.9454 26.6627
11.0270 26.6499
11.1087 26.6350
11.1904 26.6183
11.2721 26.6023
11.3538 26.5874
11.4354 26.5683
11.5171 26.5526
11.5988 26.5356
11.6805 26.5211
11.7622 26.5017
11.8439 26.4830
11.9255 26.4689
12.0072 26.4584
12.0889 26.4437
12.1706 26.4278
12.2523 26.4135
12.3339 26.3967
12.4156 26.3834
12.4973 26.3696
12.5790 26.3521
12.6607 26.3311
12.7424 26.3121
12.8240 26.2991
12.9057 26.2846
12.9874 26.2692
13.0691 26.2585
13.1508 26.2432
13.2324 26.2289
13.3141 26.2076
13.3958 26.1886
13.4775 26.1740
13.5592 26.1603
13.6409 26.1479
13.7225 26.1342
13.8042 26.1214
13.8859 26.1086
13.9676 26.0910
14.0493 26.0707
14.1309 26.0509
14.2126 26.0342
14.2943 26.0221
14.3760 26.0081
14.4577 25.9945
14.5394 25.9796
14.6210 25.9637
14.7027 25.9483
14.7844 25.9274
14.8661 25.9118
14.9478 25.8966
15.0294 25.8829
15.1111 25.8694
15.1928 25.8542
15.2745 25.8381
15.3562 25.8194
15.4379 25.8056
15.5195 25.7942
15.6012 25.7772
15.6829 25.7593
15.7646 25.7404
15.8463 25.7268
15.9279 25.7156
16.0096 25.6991
16.0913 25.6845
16.1730 25.6757
16.2547 25.6630
16.3364 25.6482
16.4180 25.6285
16.4997 25.6094
16.5814 25.5951
16.6631 25.5811
16.7448 25.5644
16.8264 25.5452
16.9081 25.5356
16.9898 25.5208
17.0715 25.5063
17.1532 25.4907
17.2349 25.4771
17.3165 25.4600
17.3982 25.4447
17.4799 25.4299
17.5616 25.4096
17.6433 25.3939
17.7249 25.3787
17.8066 25.3609
17.8883 25.3465
17.9700 25.3314
18.0517 25.3180
18.1334 25.3025
18.2150 25.2848
18.2967 25.2687
18.3784 25.2551
18.4601 25.2397
18.5418 25.2269
18.6234 25.2110
18.7051 25.1937
18.7868 25.1799
18.8685 25.1615
18.9502 25.1461
19.0318 25.1314
19.1135 25.1155
19.1952 25.1017
19.2769 25.0866
19.3586 25.0712
19.4403 25.0549
19.5219 25.0385
19.6036 25.0209
19.6853 25.0072
19.7670 24.9964
19.8487 24.9810
19.9303 24.9643
20.0120 24.9485
20.0937 24.9337
20.1754 24.9192
20.2571 24.9021
20.3388 24.8859
20.4204 24.8676
20.5021 24.8537
20.5838 24.8404
20.6655 24.8267
20.7472 24.8122
20.8288 24.7973
20.9105 24.7817
20.9922 24.7665
21.0739 24.7786
21.1556 24.7838
21.2373 24.6195
21.3189 24.2576
21.4006 23.6517
21.4823 23.0084
21.5640 22.3652
21.6457 21.7226
21.7273 21.0813
21.8090 20.4420
21.8907 19.8061
21.9724 19.1721
22.0541 18.5408
22.1358 17.9140
22.2174 17.2877
22.2991 16.6652
22.3808 16.0539
22.4625 15.4552
22.5442 14.8588
22.6258 14.2713
22.7075 13.7095
22.7892 13.1732
22.8709 12.6292
22.9526 12.1228
23.0343 11.6281
23.1159 11.2311
23.1976 10.7771
23.2793 10.4030
23.3610 10.0991
23.4427 9.6997
23.5243 9.4731
23.6060 9.1883
23.6877 9.0328
23.7694 8.7990
23.8511 8.6089
23.9328 8.3615
24.0144 8.2721
24.0961 7.8564
24.1778 8.0558
24.2595 8.1451
24.3412 7.9797
24.4228 8.2093
24.5045 8.0944
24.5862 7.8737
24.6679 7.8986
24.7496 7.8285
24.8313 7.7185
24.9129 7.6349
24.9946 7.5883
25.0763 7.5469
25.1580 7.3720
25.2397 7.4129
25.3213 7.3352
25.4030 7.1432
25.4847 6.9540
25.5664 7.1731
25.6481 7.1509
25.7298 7.3413
25.8114 7.5428
25.8931 7.1409
25.9748 6.9727
26.0565 7.0048
26.1382 7.0965
26.2198 7.2995
26.3015 7.2816
26.3832 6.9434
26.4649 6.8815
26.5466 7.0463
26.6283 7.0563
26.7099 6.8066
26.7916 6.6870
26.8733 6.9940
26.9550 6.7866
27.0367 6.9160
27.1183 6.7897
27.2000 7.1081
27.2817 7.0342
27.3634 6.9228
27.4451 6.5620
27.5268 6.5612
27.6084 6.5752
27.6901 6.1440
27.7718 5.9153
27.8535 6.2713
27.9352 6.6288
28.0168 6.7095
28.0985 6.7092
28.1802 6.8486
28.2619 6.3219
28.3436 6.1693
28.4253 6.0355
28.5069 6.4657
28.5886 6.3479
28.6703 6.4002
28.7520 6.2617
28.8337 6.0278
28.9153 5.8807
28.9970 6.2280
29.0787 5.8782
29.1604 6.5651
29.2421 6.1091
29.3238 6.1821
29.4054 5.7935
29.4871 6.2197
29.5688 6.2986
29.6505 6.3671
29.7322 5.9247
29.8138 6.1520
29.8955 5.7205
29.9772 6.1297
30.0589 5.7103
30.1406 5.5643
30.2223 5.4516
30.3039 5.3618
30.3856 5.4767
30.4673 5.3424
30.5490 4.9601
30.6307 5.2520
30.7123 5.2516
30.7940 5.1455
30.8757 5.6200
30.9574 5.6531
31.0391 6.2445
31.1207 6.2787
31.2024 5.8528
31.2841 5.7149
31.3658 6.0854
31.4475 5.8249
31.5292 5.6769
31.6108 5.5825
31.6925 5.9200
31.7742 5.6502
31.8559 6.0620
31.9376 6.0999
32.0192 6.5349
32.1009 6.1734
32.1826 5.7545
32.2643 5.6555
32.3460 5.7819
32.4277 5.6999
32.5093 5.9131
32.5910 6.2153
32.6727 5.6552
32.7544 5.2746
32.8361 5.5630
32.9177 5.8089
32.9994 5.7221
33.0811 5.4985
33.1628 5.6573
33.2445 5.7686
33.3262 5.6330
33.4078 5.4431
33.4895 5.6210
33.5712 6.1854
33.6529 5.9701
33.7346 6.0205
33.8162 6.0063
33.8979 5.3144
33.9796 5.0747
34.0613 5.2813
34.1430 5.5890
34.2247 4.9468
34.3063 5.1674
34.3880 5.3922
34.4697 4.8936
34.5514 5.0353
34.6331 5.3387
34.7147 5.0758
34.7964 4.6631
34.8781 4.4616
34.9598 4.7531
35.0415 4.9951
35.1232 5.0188
35.2048 4.6702
35.2865 4.8258
35.3682 4.9254
35.4499 4.6662
35.5316 4.8708
35.6132 5.1418
35.6949 5.2076
35.7766 5.1828
35.8583 4.7475
35.9400 4.8564
36.0217 4.9557
36.1033 5.3519
36.1850 5.0330
36.2667 4.4688
36.3484 4.2700
36.4301 4.2498
36.5117 3.4175
36.5934 4.3225
36.6751 5.3359
36.7568 5.2094
36.8385 5.2941
36.9202 3.7409
37.0018 3.3769
37.0835 2.4819
37.1652 3.0087
37.2469 1.7250
37.3286 3.6859
37.4102 4.3431
37.4919 3.9919
37.5736 4.6153
37.6553 4.6450
37.7370 5.4696
37.8187 4.8726
37.9003 3.3802
37.9820 5.4961
38.0637 4.9665
38.1454 4.3180
38.2271 4.6776
38.3087 5.3111
38.3904 4.0696
38.4721 4.2253
38.5538 4.3630
38.6355 4.8208
38.7172 4.1065
38.7988 1.9188
38.8805 4.5823
38.9622 4.3434
39.0439 5.1556
39.1256 4.5554
39.2072 4.7051
39.2889 4.7448
39.3706 5.0114
39.4523 4.4345
39.5340 3.6660
39.6157 4.0070
39.6973 2.8941
39.7790 4.7304
39.8607 2.8726
39.9424 0.9274
40.0241 3.3037
40.1057 1.3430
40.1874 1.5902
40.2691 3.6779
40.3508 4.7217
40.4325 3.5959
40.5142 4.4283
40.5958 4.7147
40.6775 3.4396
40.7592 4.6626




