EXFO_Electro_Optical_Engineering   -  OTDR_REPORT

TRACE_FILE:  TRACE010.asc
OTDR:  FTB-7323B-89
SERIAL_NUMBER:  54431-2C
WAVELENGTH:  1550.0 (SM)
DISTANCE_RANGE:  40.0000 km
PULSE_WIDTH:  100 ns
ACQUISITION_TIME: 1.50 min
FIBER_INDEX:  1.4681
HELIX_FACTOR:  0.00 %
RBS_FACTOR:  -82.29 dB
JOB_ID:  
CABLE_ID:  
FIBER_ID:  
FIBER_TYPE:  
OPERATOR_A:  
OPERATOR_B:  

DATE:  2011/07/06
TIME:  14:49

NUMBER_OF_AVERAGED_POINTS:  500

                                 FAULT TABLE

-------------------------------------------------------------------------------
No,Loc(km),Event Type,Loss(dB),Refl(dB),Atten(dB/km),Cumul(dB)

 1,0.0000,Launch Level,- - -, >-16.1 ,, 0.000

,,Fiber Section  (10.5369 km), 2.011 ,, 0.191 , 2.011
 2,10.5369,Non-Reflective Fault, 0.837 ,,, 2.849

,,Fiber Section  (10.5625 km), 1.953 ,, 0.185 , 4.802


  Link Loss: 4.80 dB    Link Length: 21.0994 km    Average Loss: 0.228 dB/km


POS(km)  VAL(dB)

0.0000 28.1100
0.0817 21.6968
0.1634 20.9339
0.2450 20.5737
0.3267 20.3649
0.4084 20.2193
0.4901 20.1180
0.5718 20.0425
0.6535 19.9968
0.7351 19.9447
0.8168 19.8889
0.8985 19.8601
0.9802 19.8318
1.0619 19.8226
1.1435 19.7908
1.2252 19.7809
1.3069 19.7626
1.3886 19.7298
1.4703 19.7184
1.5520 19.7106
1.6336 19.6861
1.7153 19.6636
1.7970 19.6542
1.8787 19.6363
1.9604 19.6212
2.0420 19.6078
2.1237 19.5944
2.2054 19.5830
2.2871 19.5526
2.3688 19.5649
2.4505 19.5317
2.5321 19.5071
2.6138 19.4924
2.6955 19.4914
2.7772 19.4776
2.8589 19.4553
2.9405 19.4305
3.0222 19.4193
3.1039 19.4109
3.1856 19.3954
3.2673 19.3801
3.3490 19.3605
3.4306 19.3480
3.5123 19.3387
3.5940 19.3161
3.6757 19.2994
3.7574 19.2951
3.8390 19.2654
3.9207 19.2548
4.0024 19.2568
4.0841 19.2502
4.1658 19.2003
4.2475 19.1856
4.3291 19.1869
4.4108 19.1623
4.4925 19.1579
4.5742 19.1200
4.6559 19.1212
4.7375 19.1008
4.8192 19.1048
4.9009 19.0839
4.9826 19.0536
5.0643 19.0292
5.1460 19.0234
5.2276 19.0074
5.3093 18.9929
5.3910 18.9769
5.4727 18.9575
5.5544 18.9373
5.6360 18.9275
5.7177 18.9120
5.7994 18.9012
5.8811 18.8865
5.9628 18.8867
6.0445 18.8640
6.1261 18.8495
6.2078 18.8164
6.2895 18.8113
6.3712 18.7883
6.4529 18.7629
6.5345 18.7648
6.6162 18.7545
6.6979 18.7405
6.7796 18.7202
6.8613 18.7082
6.9429 18.6870
7.0246 18.6747
7.1063 18.6568
7.1880 18.6512
7.2697 18.6289
7.3514 18.6136
7.4330 18.5932
7.5147 18.5714
7.5964 18.5585
7.6781 18.5542
7.7598 18.5168
7.8414 18.5234
7.9231 18.5060
8.0048 18.4975
8.0865 18.4680
8.1682 18.4664
8.2499 18.4309
8.3315 18.4168
8.4132 18.3994
8.4949 18.3933
8.5766 18.3947
8.6583 18.3743
8.7399 18.3423
8.8216 18.3406
8.9033 18.3086
8.9850 18.2796
9.0667 18.2787
9.1484 18.2612
9.2300 18.2654
9.3117 18.2277
9.3934 18.2172
9.4751 18.1861
9.5568 18.1909
9.6384 18.1584
9.7201 18.1424
9.8018 18.1172
9.8835 18.1160
9.9652 18.1094
10.0469 18.0626
10.1285 18.0793
10.2102 18.0348
10.2919 17.9867
10.3736 18.0071
10.4553 17.9862
10.5369 17.3023
10.6186 17.1343
10.7003 17.1167
10.7820 17.0782
10.8637 17.0460
10.9454 17.0380
11.0270 17.0280
11.1087 16.9736
11.1904 16.9835
11.2721 17.0035
11.3538 16.9497
11.4354 16.9346
11.5171 16.9280
11.5988 16.9623
11.6805 16.9072
11.7622 16.8994
11.8439 16.8736
11.9255 16.8987
12.0072 16.8411
12.0889 16.8191
12.1706 16.8257
12.2523 16.8063
12.3339 16.8236
12.4156 16.7559
12.4973 16.7365
12.5790 16.7827
12.6607 16.7001
12.7424 16.6997
12.8240 16.6861
12.9057 16.6978
12.9874 16.6759
13.0691 16.6487
13.1508 16.6427
13.2324 16.6181
13.3141 16.6051
13.3958 16.6192
13.4775 16.5849
13.5592 16.5565
13.6409 16.5623
13.7225 16.5220
13.8042 16.4919
13.8859 16.4834
13.9676 16.4884
14.0493 16.4702
14.1309 16.4475
14.2126 16.4134
14.2943 16.4483
14.3760 16.4034
14.4577 16.3651
14.5394 16.3424
14.6210 16.3642
14.7027 16.3574
14.7844 16.3232
14.8661 16.3058
14.9478 16.2960
15.0294 16.3080
15.1111 16.2671
15.1928 16.2821
15.2745 16.2431
15.3562 16.2219
15.4379 16.2022
15.5195 16.1849
15.6012 16.1727
15.6829 16.1780
15.7646 16.0931
15.8463 16.1184
15.9279 16.1261
16.0096 16.1201
16.0913 16.0756
16.1730 16.0869
16.2547 16.0653
16.3364 16.0585
16.4180 16.0049
16.4997 16.0191
16.5814 15.9838
16.6631 15.9490
16.7448 15.9569
16.8264 15.9235
16.9081 15.9213
16.9898 15.8939
17.0715 15.8736
17.1532 15.9349
17.2349 15.8128
17.3165 15.8256
17.3982 15.7916
17.4799 15.8513
17.5616 15.8089
17.6433 15.8081
17.7249 15.8195
17.8066 15.7878
17.8883 15.7276
17.9700 15.6993
18.0517 15.7199
18.1334 15.7260
18.2150 15.6993
18.2967 15.6705
18.3784 15.6792
18.4601 15.6014
18.5418 15.6438
18.6234 15.6039
18.7051 15.6111
18.7868 15.5999
18.8685 15.5961
18.9502 15.4971
19.0318 15.5363
19.1135 15.5201
19.1952 15.4936
19.2769 15.4955
19.3586 15.4890
19.4403 15.4817
19.5219 15.4286
19.6036 15.3906
19.6853 15.4627
19.7670 15.4140
19.8487 15.3666
19.9303 15.4425
20.0120 15.3072
20.0937 15.3267
20.1754 15.3792
20.2571 15.4027
20.3388 15.2131
20.4204 15.3199
20.5021 15.2419
20.5838 15.2991
20.6655 15.3365
20.7472 15.2148
20.8288 15.2047
20.9105 15.1678
20.9922 15.1898
21.0739 11.3099
21.1556 5.4096
21.2373 4.3132
21.3189 4.5812
21.4006 2.9314
21.4823 6.2002
21.5640 3.7933
21.6457 2.9976
21.7273 4.3761
21.8090 5.1477
21.8907 5.3639
21.9724 3.2963
22.0541 5.1045
22.1358 5.6125
22.2174 4.4653
22.2991 4.8248
22.3808 5.0123
22.4625 3.3857
22.5442 3.6537
22.6258 3.0547
22.7075 4.2726
22.7892 3.7037
22.8709 3.3723
22.9526 5.2724
23.0343 3.9311
23.1159 3.1095
23.1976 3.6089
23.2793 5.7671
23.3610 7.2850
23.4427 3.6610
23.5243 6.8433
23.6060 4.9418
23.6877 4.6985
23.7694 1.7965
23.8511 4.7035
23.9328 6.4180
24.0144 5.1162
24.0961 1.8792
24.1778 5.4115
24.2595 5.5414
24.3412 5.3860
24.4228 5.0112
24.5045 2.9692
24.5862 4.9191
24.6679 3.3047
24.7496 3.5857
24.8313 5.5794
24.9129 4.1985
24.9946 3.0518
25.0763 3.2953
25.1580 5.8788
25.2397 5.2773
25.3213 1.7070
25.4030 3.4405
25.4847 5.1466
25.5664 4.4665
25.6481 3.1248
25.7298 5.7292
25.8114 4.4148
25.8931 3.3521
25.9748 2.3480
26.0565 3.9713
26.1382 6.0960
26.2198 4.4818
26.3015 3.4866
26.3832 3.6218
26.4649 4.4551
26.5466 5.6199
26.6283 5.1847
26.7099 4.7953
26.7916 4.7284
26.8733 5.7739
26.9550 3.1127
27.0367 3.6638
27.1183 3.3959
27.2000 3.6865
27.2817 3.1067
27.3634 2.6629
27.4451 3.7799
27.5268 2.4566
27.6084 4.6382
27.6901 4.3884
27.7718 6.2109
27.8535 4.4359
27.9352 4.0366
28.0168 4.3143
28.0985 5.8629
28.1802 6.1749
28.2619 3.8996
28.3436 2.6780
28.4253 5.4924
28.5069 5.5962
28.5886 6.3960
28.6703 5.6071
28.7520 3.6046
28.8337 5.7718
28.9153 4.3520
28.9970 7.2163
29.0787 4.6187
29.1604 2.7279
29.2421 3.3191
29.3238 4.0560
29.4054 2.2253
29.4871 6.1003
29.5688 5.7912
29.6505 6.2461
29.7322 3.3279
29.8138 5.1494
29.8955 5.2161
29.9772 4.1683
30.0589 4.7912
30.1406 4.4064
30.2223 4.4350
30.3039 4.4229
30.3856 3.5702
30.4673 6.0356
30.5490 3.7641
30.6307 2.5638
30.7123 3.0200
30.7940 6.5060
30.8757 3.3665
30.9574 3.3556
31.0391 5.6717
31.1207 4.1401
31.2024 2.3250
31.2841 5.3401
31.3658 4.9084
31.4475 4.3380
31.5292 3.5864
31.6108 4.6393
31.6925 3.0868
31.7742 4.9975
31.8559 1.2791
31.9376 6.1244
32.0192 5.7184
32.1009 3.8654
32.1826 5.6630
32.2643 5.8637
32.3460 3.3096
32.4277 5.5367
32.5093 5.0287
32.5910 6.0439
32.6727 5.0309
32.7544 4.3343
32.8361 5.0453
32.9177 4.6272
32.9994 5.4101
33.0811 4.8546
33.1628 3.3022
33.2445 5.4455
33.3262 5.1962
33.4078 4.2087
33.4895 4.5148
33.5712 3.7929
33.6529 3.2264
33.7346 3.9273
33.8162 3.2687
33.8979 3.1263
33.9796 3.8713
34.0613 3.4700
34.1430 4.3024
34.2247 5.5672
34.3063 3.8976
34.3880 2.7292
34.4697 5.8242
34.5514 3.5249
34.6331 6.9801
34.7147 7.8947
34.7964 6.1458
34.8781 5.3820
34.9598 3.3568
35.0415 4.5957
35.1232 4.6937
35.2048 2.5867
35.2865 5.2438
35.3682 6.8771
35.4499 6.4294
35.5316 5.4473
35.6132 3.8358
35.6949 3.5633
35.7766 2.3884
35.8583 2.3667
35.9400 3.0835
36.0217 2.2931
36.1033 5.3593
36.1850 6.0165
36.2667 4.3239
36.3484 5.4370
36.4301 1.9557
36.5117 6.0502
36.5934 3.0965
36.6751 3.2804
36.7568 3.8665
36.8385 3.0465
36.9202 5.6941
37.0018 4.6520
37.0835 5.0685
37.1652 4.8497
37.2469 6.7948
37.3286 6.1093
37.4102 4.8992
37.4919 4.7457
37.5736 3.7670
37.6553 2.5164
37.7370 5.3083
37.8187 5.8288
37.9003 4.5282
37.9820 5.1443
38.0637 5.5067
38.1454 4.6631
38.2271 3.1323
38.3087 6.6632
38.3904 3.9236
38.4721 5.3976
38.5538 4.7137
38.6355 2.9447
38.7172 3.0555
38.7988 3.2903
38.8805 5.1693
38.9622 4.6493
39.0439 6.3752
39.1256 4.7876
39.2072 4.5090
39.2889 4.0800
39.3706 4.4760
39.4523 3.3300
39.5340 6.6249
39.6157 6.5738
39.6973 3.5124
39.7790 4.7911
39.8607 3.0926
39.9424 5.1689
40.0241 3.4866
40.1057 4.5886
40.1874 3.9679
40.2691 5.9814
40.3508 5.4506
40.4325 5.6497
40.5142 7.2491
40.5958 3.5903
40.6775 4.2911
40.7592 3.8093




