EXFO_Electro_Optical_Engineering   -  OTDR_REPORT

TRACE_FILE:  TRACE012.asc
OTDR:  FTB-7323B-89
SERIAL_NUMBER:  54431-2C
WAVELENGTH:  1310.0 (SM)
DISTANCE_RANGE:  40.0000 km
PULSE_WIDTH:  100 ns
ACQUISITION_TIME: 1.00 min
FIBER_INDEX:  1.4681
HELIX_FACTOR:  0.00 %
RBS_FACTOR:  -79.80 dB
JOB_ID:  
CABLE_ID:  
FIBER_ID:  
FIBER_TYPE:  
OPERATOR_A:  
OPERATOR_B:  

DATE:  2011/07/06
TIME:  14:55

NUMBER_OF_AVERAGED_POINTS:  500

                                 FAULT TABLE

-------------------------------------------------------------------------------
No,Loc(km),Event Type,Loss(dB),Refl(dB),Atten(dB/km),Cumul(dB)

 1,0.0000,Launch Level,- - -, >-17.2 ,, 0.000

,,Fiber Section  (0.1761 km),- - -,,- - -, 0.000
 2,0.1761,Non-Reflective Fault, 0.299 ,,, 0.299

,,Fiber Section  (10.3634 km), 3.431 ,, 0.331 , 3.730
 3,10.5395,Non-Reflective Fault, 0.436 ,,, 4.166

,,Fiber Section  (10.5625 km), 3.500 ,, 0.331 , 7.665


  Link Loss: 7.67 dB    Link Length: 21.1020 km    Average Loss: 0.363 dB/km


POS(km)  VAL(dB)

0.0000 28.1220
0.0817 21.9325
0.1634 21.4959
0.2450 21.3446
0.3267 21.2689
0.4084 21.2093
0.4901 21.1756
0.5718 21.1368
0.6535 21.1036
0.7351 21.0623
0.8168 21.0389
0.8985 21.0083
0.9802 20.9873
1.0619 20.9496
1.1435 20.9325
1.2252 20.9019
1.3069 20.8769
1.3886 20.8537
1.4703 20.8284
1.5520 20.8027
1.6336 20.7761
1.7153 20.7409
1.7970 20.7185
1.8787 20.6958
1.9604 20.6695
2.0420 20.6323
2.1237 20.6129
2.2054 20.5947
2.2871 20.5623
2.3688 20.5378
2.4505 20.5130
2.5321 20.4792
2.6138 20.4603
2.6955 20.4263
2.7772 20.4024
2.8589 20.3749
2.9405 20.3447
3.0222 20.3165
3.1039 20.3040
3.1856 20.2748
3.2673 20.2460
3.3490 20.2236
3.4306 20.1902
3.5123 20.1615
3.5940 20.1324
3.6757 20.1073
3.7574 20.0785
3.8390 20.0558
3.9207 20.0311
4.0024 20.0008
4.0841 19.9766
4.1658 19.9428
4.2475 19.9028
4.3291 19.8751
4.4108 19.8619
4.4925 19.8343
4.5742 19.8128
4.6559 19.7848
4.7375 19.7536
4.8192 19.7241
4.9009 19.7029
4.9826 19.6811
5.0643 19.6454
5.1460 19.6197
5.2276 19.5960
5.3093 19.5580
5.3910 19.5360
5.4727 19.5085
5.5544 19.4850
5.6360 19.4574
5.7177 19.4352
5.7994 19.4020
5.8811 19.3734
5.9628 19.3548
6.0445 19.3167
6.1261 19.2884
6.2078 19.2661
6.2895 19.2428
6.3712 19.2155
6.4529 19.1815
6.5345 19.1595
6.6162 19.1255
6.6979 19.1137
6.7796 19.0861
6.8613 19.0517
6.9429 19.0243
7.0246 18.9997
7.1063 18.9678
7.1880 18.9462
7.2697 18.9192
7.3514 18.8965
7.4330 18.8674
7.5147 18.8298
7.5964 18.8106
7.6781 18.7818
7.7598 18.7551
7.8414 18.7241
7.9231 18.7015
8.0048 18.6712
8.0865 18.6360
8.1682 18.6148
8.2499 18.5835
8.3315 18.5547
8.4132 18.5357
8.4949 18.5094
8.5766 18.4791
8.6583 18.4505
8.7399 18.4333
8.8216 18.3979
8.9033 18.3613
8.9850 18.3339
9.0667 18.3145
9.1484 18.2799
9.2300 18.2617
9.3117 18.2247
9.3934 18.2062
9.4751 18.1771
9.5568 18.1458
9.6384 18.1219
9.7201 18.0991
9.8018 18.0529
9.8835 18.0271
9.9652 18.0057
10.0469 17.9737
10.1285 17.9277
10.2102 17.9093
10.2919 17.8843
10.3736 17.8578
10.4553 17.8260
10.5369 17.4970
10.6186 17.3358
10.7003 17.3069
10.7820 17.2901
10.8637 17.2446
10.9454 17.2384
11.0270 17.2138
11.1087 17.1738
11.1904 17.1495
11.2721 17.1146
11.3538 17.1009
11.4354 17.0735
11.5171 17.0421
11.5988 17.0232
11.6805 16.9749
11.7622 16.9701
11.8439 16.9314
11.9255 16.9175
12.0072 16.8866
12.0889 16.8589
12.1706 16.8306
12.2523 16.7997
12.3339 16.7593
12.4156 16.7428
12.4973 16.7194
12.5790 16.6840
12.6607 16.6524
12.7424 16.6354
12.8240 16.6200
12.9057 16.5631
12.9874 16.5625
13.0691 16.5151
13.1508 16.5023
13.2324 16.4646
13.3141 16.4255
13.3958 16.4199
13.4775 16.3900
13.5592 16.3591
13.6409 16.3456
13.7225 16.3123
13.8042 16.2733
13.8859 16.2513
13.9676 16.2148
14.0493 16.1955
14.1309 16.1707
14.2126 16.1515
14.2943 16.0976
14.3760 16.1081
14.4577 16.0556
14.5394 16.0431
14.6210 15.9925
14.7027 15.9953
14.7844 15.9500
14.8661 15.9285
14.9478 15.9163
15.0294 15.8768
15.1111 15.8202
15.1928 15.8254
15.2745 15.7904
15.3562 15.7729
15.4379 15.7523
15.5195 15.6922
15.6012 15.6737
15.6829 15.6565
15.7646 15.5934
15.8463 15.6182
15.9279 15.5547
16.0096 15.5491
16.0913 15.5166
16.1730 15.4865
16.2547 15.4585
16.3364 15.4482
16.4180 15.3816
16.4997 15.3948
16.5814 15.3572
16.6631 15.3287
16.7448 15.3135
16.8264 15.2537
16.9081 15.2463
16.9898 15.2074
17.0715 15.1872
17.1532 15.1742
17.2349 15.1495
17.3165 15.1043
17.3982 15.0781
17.4799 15.0708
17.5616 15.0325
17.6433 15.0099
17.7249 14.9911
17.8066 14.9607
17.8883 14.9106
17.9700 14.8903
18.0517 14.8549
18.1334 14.8440
18.2150 14.8145
18.2967 14.7489
18.3784 14.7719
18.4601 14.7313
18.5418 14.6552
18.6234 14.6749
18.7051 14.6481
18.7868 14.6074
18.8685 14.5909
18.9502 14.5823
19.0318 14.5112
19.1135 14.5146
19.1952 14.4932
19.2769 14.4876
19.3586 14.4264
19.4403 14.4385
19.5219 14.3438
19.6036 14.3762
19.6853 14.3063
19.7670 14.2956
19.8487 14.3152
19.9303 14.2217
20.0120 14.2508
20.0937 14.1551
20.1754 14.1539
20.2571 14.1464
20.3388 14.1039
20.4204 14.1008
20.5021 14.0418
20.5838 14.0340
20.6655 14.0093
20.7472 13.9605
20.8288 13.9416
20.9105 13.9440
20.9922 13.8719
21.0739 10.0779
21.1556 3.1737
21.2373 2.3499
21.3189 2.6956
21.4006 1.0362
21.4823 4.7241
21.5640 2.8778
21.6457 4.1240
21.7273 2.2801
21.8090 2.6319
21.8907 2.4375
21.9724 2.8557
22.0541 3.8341
22.1358 2.5542
22.2174 2.9628
22.2991 4.2576
22.3808 2.4191
22.4625 2.5017
22.5442 2.5090
22.6258 4.2335
22.7075 3.2437
22.7892 1.1948
22.8709 1.0681
22.9526 2.4651
23.0343 1.7547
23.1159 2.8895
23.1976 3.0385
23.2793 3.5074
23.3610 2.2920
23.4427 2.7056
23.5243 3.1113
23.6060 3.2461
23.6877 0.9338
23.7694 1.3364
23.8511 4.3205
23.9328 2.4055
24.0144 3.3606
24.0961 2.5718
24.1778 2.3365
24.2595 2.7838
24.3412 1.9542
24.4228 2.3798
24.5045 2.5491
24.5862 1.6745
24.6679 2.9105
24.7496 3.2432
24.8313 3.1093
24.9129 1.6079
24.9946 3.4175
25.0763 3.9077
25.1580 1.6820
25.2397 3.8644
25.3213 2.1386
25.4030 2.3667
25.4847 1.7937
25.5664 3.4091
25.6481 3.0868
25.7298 3.1874
25.8114 1.9946
25.8931 2.2144
25.9748 3.0356
26.0565 2.0990
26.1382 3.5473
26.2198 2.8428
26.3015 1.3549
26.3832 3.1102
26.4649 1.4962
26.5466 3.7914
26.6283 1.6638
26.7099 4.1185
26.7916 2.6017
26.8733 3.3098
26.9550 1.7579
27.0367 3.7053
27.1183 0.4166
27.2000 4.8781
27.2817 3.7002
27.3634 1.0436
27.4451 3.1666
27.5268 3.8402
27.6084 2.7310
27.6901 1.0202
27.7718 2.4519
27.8535 1.6195
27.9352 3.3646
28.0168 2.8571
28.0985 2.9132
28.1802 3.0278
28.2619 3.0284
28.3436 2.9741
28.4253 2.4817
28.5069 1.8077
28.5886 2.9232
28.6703 1.8122
28.7520 2.0037
28.8337 2.9646
28.9153 2.2374
28.9970 3.5763
29.0787 2.1437
29.1604 1.8968
29.2421 4.0574
29.3238 2.4619
29.4054 1.2083
29.4871 3.6967
29.5688 2.9285
29.6505 2.2562
29.7322 2.2602
29.8138 3.7753
29.8955 3.6583
29.9772 1.6834
30.0589 1.6025
30.1406 2.5905
30.2223 2.8804
30.3039 2.6994
30.3856 1.9900
30.4673 1.8791
30.5490 2.6864
30.6307 2.0825
30.7123 3.3253
30.7940 2.5772
30.8757 2.3730
30.9574 1.9160
31.0391 2.5631
31.1207 3.3285
31.2024 2.3153
31.2841 3.2878
31.3658 1.6237
31.4475 0.9030
31.5292 3.9109
31.6108 2.3744
31.6925 2.6432
31.7742 1.8455
31.8559 2.5011
31.9376 2.0901
32.0192 1.9776
32.1009 2.5577
32.1826 4.2783
32.2643 2.9743
32.3460 2.7008
32.4277 0.7463
32.5093 2.7027
32.5910 1.5173
32.6727 3.7975
32.7544 2.2782
32.8361 2.7117
32.9177 2.7292
32.9994 3.6298
33.0811 2.2164
33.1628 2.5805
33.2445 0.9839
33.3262 2.3556
33.4078 3.2264
33.4895 2.9070
33.5712 4.4009
33.6529 3.6128
33.7346 4.4310
33.8162 3.3193
33.8979 1.4265
33.9796 2.7997
34.0613 3.8581
34.1430 2.0692
34.2247 3.5322
34.3063 1.6598
34.3880 3.8321
34.4697 3.3065
34.5514 2.4073
34.6331 3.6828
34.7147 3.7510
34.7964 2.1338
34.8781 3.6378
34.9598 1.7350
35.0415 4.0434
35.1232 2.4451
35.2048 3.5635
35.2865 3.3519
35.3682 3.9268
35.4499 5.1069
35.5316 3.0039
35.6132 3.1005
35.6949 3.8852
35.7766 2.0605
35.8583 2.7363
35.9400 1.5852
36.0217 4.3161
36.1033 1.6159
36.1850 2.6920
36.2667 3.1805
36.3484 2.5417
36.4301 4.0046
36.5117 2.2372
36.5934 2.7494
36.6751 3.5489
36.7568 4.2391
36.8385 3.6519
36.9202 3.6467
37.0018 2.6481
37.0835 2.6558
37.1652 1.3580
37.2469 1.7858
37.3286 3.0638
37.4102 3.2241
37.4919 2.0973
37.5736 2.6989
37.6553 3.9465
37.7370 3.3468
37.8187 3.3410
37.9003 2.9405
37.9820 2.8024
38.0637 4.8972
38.1454 4.9129
38.2271 2.8897
38.3087 3.6862
38.3904 3.0604
38.4721 2.5679
38.5538 2.8794
38.6355 3.2345
38.7172 2.8017
38.7988 2.5137
38.8805 3.1526
38.9622 2.5493
39.0439 2.2496
39.1256 2.4962
39.2072 3.4348
39.2889 0.7602
39.3706 5.5689
39.4523 1.7955
39.5340 4.7340
39.6157 3.2035
39.6973 3.5532
39.7790 1.6723
39.8607 1.7705
39.9424 4.1083
40.0241 3.5066
40.1057 1.3742
40.1874 2.8461
40.2691 2.4812
40.3508 3.9668
40.4325 4.5095
40.5142 0.9534
40.5958 3.3302
40.6775 3.0715
40.7592 2.9168




