EXFO_Electro_Optical_Engineering   -  OTDR_REPORT

TRACE_FILE:  TRACE009.asc
OTDR:  FTB-7323B-89
SERIAL_NUMBER:  54431-2C
WAVELENGTH:  1550.0 (SM)
DISTANCE_RANGE:  40.0000 km
PULSE_WIDTH:  100 ns
ACQUISITION_TIME: 0.50 min
FIBER_INDEX:  1.4681
HELIX_FACTOR:  0.00 %
RBS_FACTOR:  -82.29 dB
JOB_ID:  
CABLE_ID:  
FIBER_ID:  
FIBER_TYPE:  
OPERATOR_A:  
OPERATOR_B:  

DATE:  2011/07/06
TIME:  14:47

NUMBER_OF_AVERAGED_POINTS:  500

                                 FAULT TABLE

-------------------------------------------------------------------------------
No,Loc(km),Event Type,Loss(dB),Refl(dB),Atten(dB/km),Cumul(dB)

 1,0.0000,Launch Level,- - -, >-16.1 ,, 0.000

,,Fiber Section  (10.5369 km), 2.015 ,, 0.191 , 2.015
 2,10.5369,Non-Reflective Fault, 0.793 ,,, 2.807

,,Fiber Section  (10.5548 km), 2.006 ,, 0.190 , 4.813


  Link Loss: 4.81 dB    Link Length: 21.0918 km    Average Loss: 0.228 dB/km


POS(km)  VAL(dB)

0.0000 28.0043
0.0817 21.6922
0.1634 20.9296
0.2450 20.5443
0.3267 20.3391
0.4084 20.1797
0.4901 20.0810
0.5718 19.9896
0.6535 19.9594
0.7351 19.9015
0.8168 19.8690
0.8985 19.8152
0.9802 19.7949
1.0619 19.7928
1.1435 19.7412
1.2252 19.7292
1.3069 19.7267
1.3886 19.6819
1.4703 19.6888
1.5520 19.6606
1.6336 19.6436
1.7153 19.6171
1.7970 19.6199
1.8787 19.5893
1.9604 19.5804
2.0420 19.5533
2.1237 19.5441
2.2054 19.5268
2.2871 19.5333
2.3688 19.5141
2.4505 19.4908
2.5321 19.4621
2.6138 19.4745
2.6955 19.4474
2.7772 19.4519
2.8589 19.4162
2.9405 19.3931
3.0222 19.3865
3.1039 19.3804
3.1856 19.3615
3.2673 19.3726
3.3490 19.3067
3.4306 19.3065
3.5123 19.2854
3.5940 19.2677
3.6757 19.2361
3.7574 19.2439
3.8390 19.2140
3.9207 19.2102
4.0024 19.1897
4.0841 19.1708
4.1658 19.1629
4.2475 19.1602
4.3291 19.1412
4.4108 19.1107
4.4925 19.1790
4.5742 19.1004
4.6559 19.0681
4.7375 19.0759
4.8192 19.0542
4.9009 19.0193
4.9826 19.0318
5.0643 18.9891
5.1460 18.9879
5.2276 18.9514
5.3093 18.9595
5.3910 18.9259
5.4727 18.9240
5.5544 18.8994
5.6360 18.8759
5.7177 18.8645
5.7994 18.8650
5.8811 18.8526
5.9628 18.8260
6.0445 18.8085
6.1261 18.8102
6.2078 18.7953
6.2895 18.7666
6.3712 18.7507
6.4529 18.7185
6.5345 18.7331
6.6162 18.7167
6.6979 18.6727
6.7796 18.6957
6.8613 18.6389
6.9429 18.6414
7.0246 18.6289
7.1063 18.6395
7.1880 18.6194
7.2697 18.6079
7.3514 18.5794
7.4330 18.5536
7.5147 18.5403
7.5964 18.4603
7.6781 18.5060
7.7598 18.4966
7.8414 18.4583
7.9231 18.4316
8.0048 18.4736
8.0865 18.4058
8.1682 18.4265
8.2499 18.4012
8.3315 18.3796
8.4132 18.3217
8.4949 18.3347
8.5766 18.3239
8.6583 18.2724
8.7399 18.2788
8.8216 18.3050
8.9033 18.2619
8.9850 18.2670
9.0667 18.2276
9.1484 18.2070
9.2300 18.1804
9.3117 18.1878
9.3934 18.1606
9.4751 18.1403
9.5568 18.1322
9.6384 18.1125
9.7201 18.0988
9.8018 18.1250
9.8835 18.0794
9.9652 18.0498
10.0469 18.0279
10.1285 18.0447
10.2102 17.9690
10.2919 17.9442
10.3736 17.9586
10.4553 17.8849
10.5369 17.2618
10.6186 17.0284
10.7003 17.1136
10.7820 17.0154
10.8637 16.9871
10.9454 17.0438
11.0270 16.9998
11.1087 16.9874
11.1904 16.9863
11.2721 16.8838
11.3538 16.9146
11.4354 16.9031
11.5171 16.9704
11.5988 16.8989
11.6805 16.7872
11.7622 16.8089
11.8439 16.7982
11.9255 16.7177
12.0072 16.8227
12.0889 16.8104
12.1706 16.7808
12.2523 16.8222
12.3339 16.7292
12.4156 16.6893
12.4973 16.7135
12.5790 16.6671
12.6607 16.6913
12.7424 16.6725
12.8240 16.6556
12.9057 16.6216
12.9874 16.6130
13.0691 16.6336
13.1508 16.6412
13.2324 16.5568
13.3141 16.5531
13.3958 16.5836
13.4775 16.5024
13.5592 16.5124
13.6409 16.4914
13.7225 16.5460
13.8042 16.4510
13.8859 16.5277
13.9676 16.4459
14.0493 16.4133
14.1309 16.4384
14.2126 16.3557
14.2943 16.3763
14.3760 16.4097
14.4577 16.3421
14.5394 16.3425
14.6210 16.3271
14.7027 16.2273
14.7844 16.2351
14.8661 16.2930
14.9478 16.2318
15.0294 16.2266
15.1111 16.1602
15.1928 16.2717
15.2745 16.1669
15.3562 16.1931
15.4379 16.1592
15.5195 16.1878
15.6012 16.2571
15.6829 16.0785
15.7646 16.0410
15.8463 16.0096
15.9279 15.9593
16.0096 16.1481
16.0913 16.0106
16.1730 16.0871
16.2547 16.0331
16.3364 15.9943
16.4180 15.9860
16.4997 15.9625
16.5814 16.0382
16.6631 15.8363
16.7448 15.9058
16.8264 15.7878
16.9081 15.9339
16.9898 15.8686
17.0715 15.9167
17.1532 15.7944
17.2349 15.9220
17.3165 15.8330
17.3982 15.6480
17.4799 15.6302
17.5616 15.7220
17.6433 15.6970
17.7249 15.8566
17.8066 15.7944
17.8883 15.7594
17.9700 15.5949
18.0517 15.6314
18.1334 15.8009
18.2150 15.6185
18.2967 15.6216
18.3784 15.6395
18.4601 15.5443
18.5418 15.6030
18.6234 15.7086
18.7051 15.5868
18.7868 15.4406
18.8685 15.5800
18.9502 15.6062
19.0318 15.5391
19.1135 15.3864
19.1952 15.3904
19.2769 15.4166
19.3586 15.5375
19.4403 15.4311
19.5219 15.3517
19.6036 15.3981
19.6853 15.3512
19.7670 15.3251
19.8487 15.4543
19.9303 15.2935
20.0120 15.1762
20.0937 15.0194
20.1754 15.3814
20.2571 15.0251
20.3388 15.2673
20.4204 15.0908
20.5021 15.2150
20.5838 15.0323
20.6655 15.0034
20.7472 15.0830
20.8288 14.9767
20.9105 15.0806
20.9922 15.0694
21.0739 11.3024
21.1556 3.9931
21.2373 3.6874
21.3189 4.5238
21.4006 4.9226
21.4823 4.0835
21.5640 3.6584
21.6457 3.4817
21.7273 3.8500
21.8090 3.9194
21.8907 5.5933
21.9724 6.2907
22.0541 7.2981
22.1358 4.3155
22.2174 5.7462
22.2991 3.9964
22.3808 6.5421
22.4625 5.1953
22.5442 2.9289
22.6258 5.0043
22.7075 6.3043
22.7892 2.9987
22.8709 6.4377
22.9526 8.0756
23.0343 4.5521
23.1159 5.4714
23.1976 5.7508
23.2793 4.4239
23.3610 4.7724
23.4427 5.7191
23.5243 6.2368
23.6060 5.4833
23.6877 4.2337
23.7694 4.2561
23.8511 5.0070
23.9328 5.2660
24.0144 3.6124
24.0961 4.5488
24.1778 5.6252
24.2595 4.0316
24.3412 3.9826
24.4228 5.8423
24.5045 5.9183
24.5862 4.7691
24.6679 2.3774
24.7496 4.0146
24.8313 5.6736
24.9129 5.8460
24.9946 2.5084
25.0763 3.8368
25.1580 2.6800
25.2397 5.8693
25.3213 4.5872
25.4030 4.9798
25.4847 5.4341
25.5664 4.0019
25.6481 2.9288
25.7298 4.3663
25.8114 3.5140
25.8931 5.6799
25.9748 5.6418
26.0565 4.1962
26.1382 5.5207
26.2198 4.3600
26.3015 7.1823
26.3832 2.8055
26.4649 4.3831
26.5466 5.5063
26.6283 5.7929
26.7099 3.8863
26.7916 6.9277
26.8733 5.5159
26.9550 1.7554
27.0367 5.7114
27.1183 5.2132
27.2000 5.9466
27.2817 4.4887
27.3634 5.2797
27.4451 5.8118
27.5268 3.3982
27.6084 2.6440
27.6901 6.3038
27.7718 4.4247
27.8535 4.6068
27.9352 4.9152
28.0168 4.4591
28.0985 4.7217
28.1802 3.6420
28.2619 3.8399
28.3436 3.9430
28.4253 4.6437
28.5069 4.8512
28.5886 5.8232
28.6703 4.8625
28.7520 4.4888
28.8337 4.7732
28.9153 4.7915
28.9970 3.7962
29.0787 3.7473
29.1604 4.8191
29.2421 5.6625
29.3238 4.4747
29.4054 3.1603
29.4871 4.3383
29.5688 4.3746
29.6505 6.6815
29.7322 5.4087
29.8138 3.7140
29.8955 5.5522
29.9772 5.0779
30.0589 4.3691
30.1406 4.7100
30.2223 1.9733
30.3039 5.9370
30.3856 2.6924
30.4673 5.8016
30.5490 5.3416
30.6307 4.0546
30.7123 4.0550
30.7940 5.2042
30.8757 2.7047
30.9574 3.4677
31.0391 3.9172
31.1207 5.6061
31.2024 7.1461
31.2841 6.1438
31.3658 2.8341
31.4475 4.1529
31.5292 3.7202
31.6108 6.1401
31.6925 4.4969
31.7742 4.9514
31.8559 6.5999
31.9376 3.9355
32.0192 4.4899
32.1009 3.9639
32.1826 3.6868
32.2643 4.0930
32.3460 5.3188
32.4277 2.9202
32.5093 5.0175
32.5910 5.9912
32.6727 4.8320
32.7544 4.0432
32.8361 2.3864
32.9177 4.9167
32.9994 2.3553
33.0811 4.8326
33.1628 3.4705
33.2445 4.3614
33.3262 3.9574
33.4078 7.7539
33.4895 1.3142
33.5712 4.0133
33.6529 3.6332
33.7346 5.1198
33.8162 6.1382
33.8979 5.7926
33.9796 7.3282
34.0613 5.1419
34.1430 4.1634
34.2247 4.4084
34.3063 4.8643
34.3880 5.1115
34.4697 6.8652
34.5514 5.0647
34.6331 2.6968
34.7147 3.8426
34.7964 4.0393
34.8781 4.2290
34.9598 3.9689
35.0415 3.7769
35.1232 4.4731
35.2048 2.9260
35.2865 5.8547
35.3682 2.9499
35.4499 5.0773
35.5316 5.7708
35.6132 3.9880
35.6949 7.4420
35.7766 3.6040
35.8583 5.4648
35.9400 7.3205
36.0217 4.3277
36.1033 4.9518
36.1850 2.5636
36.2667 3.0905
36.3484 3.0849
36.4301 3.1812
36.5117 2.8154
36.5934 4.4235
36.6751 1.8109
36.7568 4.5443
36.8385 3.4494
36.9202 6.3263
37.0018 4.1872
37.0835 5.2556
37.1652 3.0892
37.2469 6.0309
37.3286 7.7696
37.4102 5.1157
37.4919 4.0681
37.5736 6.2512
37.6553 4.0746
37.7370 5.5994
37.8187 3.8517
37.9003 5.5431
37.9820 5.3250
38.0637 3.5434
38.1454 4.9850
38.2271 5.9558
38.3087 1.6327
38.3904 4.4438
38.4721 6.4876
38.5538 3.5141
38.6355 3.8209
38.7172 3.9278
38.7988 4.2497
38.8805 6.5635
38.9622 4.9131
39.0439 1.6506
39.1256 3.6399
39.2072 4.2368
39.2889 2.4125
39.3706 2.8690
39.4523 2.7243
39.5340 7.0794
39.6157 4.8063
39.6973 3.4148
39.7790 7.0111
39.8607 4.4125
39.9424 7.1837
40.0241 4.9069
40.1057 5.9011
40.1874 4.0732
40.2691 3.7073
40.3508 3.8417
40.4325 8.8786
40.5142 4.4229
40.5958 5.2331
40.6775 4.2747
40.7592 3.8311




