EXFO_Electro_Optical_Engineering   -  OTDR_REPORT

TRACE_FILE:  TRACE004.asc
OTDR:  FTB-7323B-89
SERIAL_NUMBER:  54431-2C
WAVELENGTH:  1550.0 (SM)
DISTANCE_RANGE:  40.0000 km
PULSE_WIDTH:  10 ns
ACQUISITION_TIME: 0.50 min
FIBER_INDEX:  1.4681
HELIX_FACTOR:  0.00 %
RBS_FACTOR:  -82.29 dB
JOB_ID:  
CABLE_ID:  
FIBER_ID:  
FIBER_TYPE:  
OPERATOR_A:  
OPERATOR_B:  

DATE:  2011/07/06
TIME:  14:38

NUMBER_OF_AVERAGED_POINTS:  500

                                 FAULT TABLE

-------------------------------------------------------------------------------
No,Loc(km),Event Type,Loss(dB),Refl(dB),Atten(dB/km),Cumul(dB)

 1,0.0000,Launch Level,- - -, >-12.8 ,, 0.000

,,Fiber Section  (3.5174 km), 0.839 ,, 0.238 , 0.839


  Link Loss: 0.84 dB    Link Length: 3.5174 km    Average Loss: 0.238 dB/km


POS(km)  VAL(dB)

0.0000 21.6214
0.0817 16.9652
0.1634 16.0910
0.2450 15.6521
0.3267 15.3288
0.4084 15.1712
0.4901 15.1069
0.5718 14.8882
0.6535 14.8383
0.7351 15.0469
0.8168 14.6924
0.8985 14.5908
0.9802 14.3995
1.0619 14.4616
1.1435 14.5299
1.2252 14.8046
1.3069 14.7128
1.3886 14.6127
1.4703 14.6253
1.5520 14.4713
1.6336 14.2407
1.7153 14.3551
1.7970 14.3391
1.8787 14.3665
1.9604 14.4103
2.0420 14.3190
2.1237 14.4500
2.2054 14.3499
2.2871 14.0737
2.3688 14.1998
2.4505 14.2977
2.5321 14.2829
2.6138 14.1342
2.6955 14.4256
2.7772 14.3426
2.8589 14.0316
2.9405 14.1019
3.0222 13.9413
3.1039 14.1913
3.1856 14.1177
3.2673 14.0306
3.3490 14.3222
3.4306 13.8402
3.5123 13.9370
3.5940 13.7759
3.6757 13.8514
3.7574 14.1961
3.8390 13.8883
3.9207 13.4726
4.0024 14.0709
4.0841 13.9630
4.1658 13.7716
4.2475 13.7122
4.3291 13.8589
4.4108 13.8117
4.4925 13.7525
4.5742 13.7148
4.6559 13.7407
4.7375 13.6591
4.8192 13.9354
4.9009 14.1480
4.9826 13.9739
5.0643 13.7188
5.1460 13.5721
5.2276 13.5335
5.3093 13.7407
5.3910 13.9057
5.4727 13.7927
5.5544 13.3450
5.6360 13.5752
5.7177 13.5979
5.7994 13.2956
5.8811 13.6632
5.9628 13.7595
6.0445 13.6391
6.1261 13.7311
6.2078 13.8960
6.2895 13.5722
6.3712 13.5785
6.4529 13.3375
6.5345 13.1045
6.6162 13.7043
6.6979 13.2917
6.7796 13.3298
6.8613 12.9645
6.9429 13.5825
7.0246 13.5957
7.1063 13.3282
7.1880 13.5236
7.2697 13.2857
7.3514 12.9309
7.4330 13.1928
7.5147 13.4424
7.5964 13.2468
7.6781 13.0158
7.7598 12.9824
7.8414 13.3924
7.9231 13.5502
8.0048 13.1436
8.0865 13.2300
8.1682 13.0898
8.2499 13.0380
8.3315 12.3419
8.4132 12.6290
8.4949 13.2598
8.5766 12.5392
8.6583 11.9304
8.7399 12.8870
8.8216 12.8936
8.9033 12.9368
8.9850 12.9061
9.0667 12.5785
9.1484 12.5514
9.2300 12.6507
9.3117 12.7766
9.3934 12.6760
9.4751 12.9832
9.5568 13.3809
9.6384 12.9851
9.7201 13.2265
9.8018 12.7389
9.8835 12.2243
9.9652 12.0615
10.0469 12.5264
10.1285 11.9569
10.2102 12.5804
10.2919 11.8708
10.3736 13.0208
10.4553 12.6280
10.5369 11.7118
10.6186 11.9664
10.7003 10.2046
10.7820 11.1885
10.8637 10.4220
10.9454 10.8324
11.0270 9.8474
11.1087 10.9453
11.1904 10.4332
11.2721 8.3199
11.3538 11.5786
11.4354 11.0866
11.5171 11.4897
11.5988 10.4316
11.6805 11.0188
11.7622 11.1360
11.8439 11.3391
11.9255 10.6032
12.0072 7.8107
12.0889 10.7333
12.1706 10.9384
12.2523 8.7483
12.3339 11.9038
12.4156 10.9379
12.4973 10.2272
12.5790 9.1867
12.6607 10.5691
12.7424 10.3740
12.8240 9.9862
12.9057 11.0037
12.9874 9.0097
13.0691 10.7394
13.1508 9.4139
13.2324 10.4864
13.3141 10.5901
13.3958 9.3531
13.4775 8.8738
13.5592 10.2852
13.6409 9.7792
13.7225 8.6494
13.8042 9.1180
13.8859 10.0757
13.9676 9.4903
14.0493 11.1669
14.1309 10.0418
14.2126 10.5328
14.2943 10.1149
14.3760 9.4982
14.4577 9.7700
14.5394 9.4771
14.6210 8.5892
14.7027 9.1224
14.7844 10.1974
14.8661 9.8918
14.9478 10.2060
15.0294 9.5731
15.1111 8.9361
15.1928 9.0258
15.2745 6.4090
15.3562 6.3546
15.4379 8.5100
15.5195 7.5413
15.6012 8.5687
15.6829 7.3349
15.7646 8.1233
15.8463 7.2719
15.9279 8.1904
16.0096 8.1953
16.0913 11.2293
16.1730 8.6790
16.2547 10.1034
16.3364 5.7626
16.4180 10.5154
16.4997 8.5585
16.5814 8.4091
16.6631 10.1686
16.7448 9.7839
16.8264 9.8673
16.9081 8.7209
16.9898 8.2489
17.0715 8.9825
17.1532 7.7574
17.2349 9.3320
17.3165 8.6446
17.3982 9.5298
17.4799 8.5565
17.5616 9.0350
17.6433 6.1110
17.7249 7.9738
17.8066 9.3073
17.8883 7.2741
17.9700 10.8644
18.0517 6.3962
18.1334 8.6515
18.2150 7.0098
18.2967 9.3114
18.3784 7.1669
18.4601 8.1648
18.5418 9.4116
18.6234 10.6880
18.7051 9.0271
18.7868 6.3806
18.8685 9.9492
18.9502 9.2953
19.0318 8.1396
19.1135 8.1874
19.1952 6.1280
19.2769 8.8167
19.3586 8.7344
19.4403 7.0454
19.5219 9.4112
19.6036 9.9547
19.6853 9.1648
19.7670 6.6935
19.8487 7.5612
19.9303 8.3014
20.0120 8.2949
20.0937 7.4809
20.1754 6.1037
20.2571 7.0507
20.3388 7.8623
20.4204 7.2344
20.5021 8.2009
20.5838 7.3937
20.6655 6.7159
20.7472 8.0757
20.8288 6.9758
20.9105 6.4359
20.9922 7.4229
21.0739 6.1372
21.1556 5.3731
21.2373 4.0394
21.3189 4.2077
21.4006 4.4446
21.4823 5.1037
21.5640 3.4578
21.6457 3.6131
21.7273 4.5993
21.8090 2.0726
21.8907 5.2664
21.9724 2.7721
22.0541 4.6097
22.1358 4.1018
22.2174 3.7363
22.2991 2.5850
22.3808 4.9943
22.4625 4.1754
22.5442 4.0996
22.6258 4.1240
22.7075 4.9292
22.7892 3.7360
22.8709 4.9124
22.9526 7.3133
23.0343 5.4942
23.1159 4.6566
23.1976 2.1562
23.2793 3.5553
23.3610 6.6594
23.4427 6.2517
23.5243 6.2532
23.6060 5.7707
23.6877 6.6012
23.7694 6.7363
23.8511 4.1360
23.9328 2.7083
24.0144 4.1074
24.0961 5.7968
24.1778 4.0977
24.2595 4.8347
24.3412 5.2984
24.4228 3.5988
24.5045 5.2672
24.5862 4.1777
24.6679 5.5605
24.7496 4.2811
24.8313 4.3753
24.9129 3.9314
24.9946 5.3594
25.0763 4.2443
25.1580 1.5690
25.2397 3.0486
25.3213 4.5376
25.4030 2.3620
25.4847 3.1471
25.5664 3.1247
25.6481 6.4395
25.7298 4.5319
25.8114 4.8002
25.8931 1.9159
25.9748 5.3735
26.0565 6.2334
26.1382 4.0592
26.2198 2.6560
26.3015 3.8389
26.3832 5.8750
26.4649 4.9757
26.5466 5.1142
26.6283 5.1010
26.7099 3.0602
26.7916 2.2414
26.8733 3.2988
26.9550 4.9971
27.0367 2.6731
27.1183 6.9088
27.2000 3.9355
27.2817 5.2830
27.3634 2.5511
27.4451 5.9535
27.5268 3.0298
27.6084 2.4576
27.6901 4.5962
27.7718 3.7569
27.8535 4.5313
27.9352 7.0729
28.0168 4.4061
28.0985 6.3776
28.1802 5.5039
28.2619 1.6735
28.3436 4.7034
28.4253 4.5432
28.5069 2.7266
28.5886 5.0838
28.6703 5.3624
28.7520 4.1190
28.8337 3.8472
28.9153 3.6179
28.9970 3.9520
29.0787 5.7284
29.1604 6.2603
29.2421 5.6332
29.3238 4.3174
29.4054 4.7357
29.4871 3.3418
29.5688 2.3472
29.6505 5.8522
29.7322 3.6278
29.8138 4.8923
29.8955 3.7085
29.9772 3.4971
30.0589 6.7588
30.1406 5.7357
30.2223 3.8594
30.3039 3.5962
30.3856 4.4586
30.4673 4.2464
30.5490 4.6767
30.6307 5.3560
30.7123 4.8683
30.7940 6.4628
30.8757 3.5567
30.9574 6.0910
31.0391 4.1926
31.1207 1.8348
31.2024 4.1461
31.2841 3.8408
31.3658 4.4506
31.4475 3.0395
31.5292 3.0096
31.6108 5.7774
31.6925 5.5121
31.7742 3.8711
31.8559 3.7636
31.9376 8.2289
32.0192 3.9211
32.1009 4.1810
32.1826 5.1112
32.2643 4.0738
32.3460 3.1568
32.4277 3.4631
32.5093 4.5868
32.5910 6.3905
32.6727 3.8486
32.7544 7.1583
32.8361 3.4603
32.9177 4.1556
32.9994 7.0455
33.0811 3.7881
33.1628 3.1344
33.2445 5.2205
33.3262 5.0347
33.4078 4.9583
33.4895 5.7038
33.5712 3.6337
33.6529 5.0226
33.7346 2.2485
33.8162 4.0790
33.8979 4.9798
33.9796 5.4763
34.0613 3.1697
34.1430 2.4433
34.2247 4.1735
34.3063 5.1143
34.3880 3.7859
34.4697 3.8374
34.5514 5.9720
34.6331 5.1790
34.7147 3.5187
34.7964 2.9668
34.8781 5.5503
34.9598 4.4106
35.0415 4.6617
35.1232 6.0183
35.2048 4.1528
35.2865 3.8588
35.3682 5.4712
35.4499 5.3849
35.5316 2.4386
35.6132 5.4269
35.6949 2.5585
35.7766 3.9671
35.8583 3.2899
35.9400 4.7233
36.0217 3.6361
36.1033 5.1296
36.1850 4.2107
36.2667 6.7884
36.3484 6.5083
36.4301 4.5813
36.5117 3.3363
36.5934 4.2957
36.6751 5.8526
36.7568 4.1016
36.8385 3.9766
36.9202 4.2892
37.0018 1.9172
37.0835 4.4670
37.1652 5.6370
37.2469 3.5828
37.3286 6.4661
37.4102 4.8157
37.4919 5.3076
37.5736 3.8191
37.6553 4.1070
37.7370 4.4252
37.8187 6.0869
37.9003 6.3689
37.9820 4.8692
38.0637 6.2766
38.1454 4.8769
38.2271 5.2140
38.3087 4.7217
38.3904 6.8603
38.4721 5.4774
38.5538 4.5219
38.6355 6.4217
38.7172 2.7160
38.7988 5.7632
38.8805 2.8739
38.9622 6.3910
39.0439 5.4829
39.1256 6.4303
39.2072 3.2002
39.2889 3.9779
39.3706 5.0323
39.4523 5.1248
39.5340 3.2659
39.6157 7.0072
39.6973 2.7275
39.7790 4.0234
39.8607 3.1714
39.9424 5.6668
40.0241 4.5188
40.1057 3.3469
40.1874 5.0771
40.2691 3.6703
40.3508 4.3793
40.4325 5.9676
40.5142 2.5221
40.5958 1.5520
40.6775 5.3985
40.7592 3.4562




